time_ms,emg_raw,class,trial
1,14,1,1
1,145,1,1
1,20,1,1
1,29,1,1
1,21,1,1
1,24,1,1
1,79,1,1
1,26,1,1
1,12,1,1
1,14,1,1
1,126,1,1
1,23,1,1
1,27,1,1
1,14,1,1
1,51,1,1
1,19,1,1
1,25,1,1
2,17,1,1
2,43,1,1
2,18,1,1
2,15,1,1
2,30,1,1
2,33,1,1
2,23,1,1
2,18,1,1
2,70,1,1
2,16,1,1
2,18,1,1
2,19,1,1
3,118,1,1
3,41,1,1
3,13,1,1
3,33,1,1
3,54,1,1
3,18,1,1
3,10,1,1
3,18,1,1
3,38,1,1
3,26,1,1
3,72,1,1
3,20,1,1
3,33,1,1
3,15,1,1
4,22,1,1
4,73,1,1
4,32,1,1
4,16,1,1
4,14,1,1
4,117,1,1
4,19,1,1
4,33,1,1
4,24,1,1
4,51,1,1
4,16,1,1
4,23,1,1
4,22,1,1
4,43,1,1
5,18,1,1
5,15,1,1
5,27,1,1
5,31,1,1
5,29,1,1
5,19,1,1
5,55,1,1
5,27,1,1
5,18,1,1
5,18,1,1
7,117,1,1
7,56,1,1
7,14,1,1
7,23,1,1
7,58,1,1
7,12,1,1
7,14,1,1
7,23,1,1
7,40,1,1
7,18,1,1
8,103,1,1
8,66,1,1
8,33,1,1
8,20,1,1
8,14,1,1
8,122,1,1
8,27,1,1
8,23,1,1
8,24,1,1
8,160,1,1
9,11,1,1
9,22,1,1
9,20,1,1
9,45,1,1
9,14,1,1
9,18,1,1
9,60,1,1
9,24,1,1
9,114,1,1
9,19,1,1
9,78,1,1
9,26,1,1
9,20,1,1
9,10,1,1
9,58,1,1
9,21,1,1
9,15,1,1
9,8,1,1
9,54,1,1
9,42,1,1
9,18,1,1
9,19,1,1
9,40,1,1
9,17,1,1
9,17,1,1
9,20,1,1
9,26,1,1
9,19,1,1
10,117,1,1
10,106,1,1
10,35,1,1
10,22,1,1
10,23,1,1
10,55,1,1
10,25,1,1
10,15,1,1
10,19,1,1
10,141,1,1
10,16,1,1
10,16,1,1
10,62,1,1
10,44,1,1
11,27,1,1
11,24,1,1
11,113,1,1
11,25,1,1
11,126,1,1
11,13,1,1
11,45,1,1
11,5,1,1
11,17,1,1
11,11,1,1
11,44,1,1
11,18,1,1
11,18,1,1
11,13,1,1
12,28,1,1
12,24,1,1
12,15,1,1
12,60,1,1
12,42,1,1
12,31,1,1
12,13,1,1
12,86,1,1
12,25,1,1
12,16,1,1
12,67,1,1
12,107,1,1
12,28,1,1
12,21,1,1
12,17,1,1
13,37,1,1
13,20,1,1
13,11,1,1
13,14,1,1
13,143,1,1
13,13,1,1
13,26,1,1
13,96,1,1
13,18,1,1
13,11,1,1
13,15,1,1
13,94,1,1
14,24,1,1
14,131,1,1
14,13,1,1
14,43,1,1
14,14,1,1
14,23,1,1
14,15,1,1
14,29,1,1
16,17,1,1
16,17,1,1
16,52,1,1
16,23,1,1
17,21,1,1
17,14,1,1
17,90,1,1
17,22,1,1
17,60,1,1
17,23,1,1
17,78,1,1
17,20,1,1
18,19,1,1
18,35,1,1
18,50,1,1
18,18,1,1
18,13,1,1
18,17,1,1
18,39,1,1
18,21,1,1
18,13,1,1
19,15,1,1
19,129,1,1
19,13,1,1
19,14,1,1
19,90,1,1
19,23,1,1
19,7,1,1
19,16,1,1
20,79,1,1
20,18,1,1
20,74,1,1
20,10,1,1
20,86,1,1
20,17,1,1
20,17,1,1
20,10,1,1
20,58,1,1
20,11,1,1
21,13,1,1
21,10,1,1
21,37,1,1
21,40,1,1
21,12,1,1
21,13,1,1
21,26,1,1
21,23,1,1
21,14,1,1
21,9,1,1
21,29,1,1
21,11,1,1
22,109,1,1
22,31,1,1
22,27,1,1
22,0,1,1
22,11,1,1
22,12,1,1
22,23,1,1
22,7,1,1
22,8,1,1
22,4,1,1
22,43,1,1
23,56,1,1
23,11,1,1
23,12,1,1
23,26,1,1
23,12,1,1
23,5,1,1
23,7,1,1
23,55,1,1
23,11,1,1
24,4,1,1
24,7,1,1
24,52,1,1
24,15,1,1
24,15,1,1
24,3,1,1
24,19,1,1
24,8,1,1
24,8,1,1
25,7,1,1
25,4,1,1
25,53,1,1
25,8,1,1
25,24,1,1
25,5,1,1
25,24,1,1
25,8,1,1
25,9,1,1
25,7,1,1
25,10,1,1
25,25,1,1
26,13,1,1
26,8,1,1
26,9,1,1
26,88,1,1
26,7,1,1
26,6,1,1
26,10,1,1
26,22,1,1
26,2,1,1
26,9,1,1
26,6,1,1
26,3,1,1
26,48,1,1
27,10,1,1
27,85,1,1
27,10,1,1
27,31,1,1
27,10,1,1
27,11,1,1
27,6,1,1
27,36,1,1
27,8,1,1
27,8,1,1
27,7,1,1
27,7,1,1
27,65,1,1
28,3,1,1
28,4,1,1
28,1,1,1
28,50,1,1
28,8,1,1
28,8,1,1
28,5,1,1
28,8,1,1
28,27,1,1
28,7,1,1
28,22,1,1
28,5,1,1
28,50,1,1
28,10,1,1
28,11,1,1
28,9,1,1
28,42,1,1
29,8,1,1
29,5,1,1
29,6,1,1
29,5,1,1
29,29,1,1
29,9,1,1
29,12,1,1
29,4,1,1
29,40,1,1
29,8,1,1
29,6,1,1
29,4,1,1
29,4,1,1
29,29,1,1
29,8,1,1
29,5,1,1
29,0,1,1
29,41,1,1
30,9,1,1
30,10,1,1
30,7,1,1
30,18,1,1
30,19,1,1
30,12,1,1
30,6,1,1
30,4,1,1
30,30,1,1
30,7,1,1
30,22,1,1
30,8,1,1
30,33,1,1
31,6,1,1
31,4,1,1
31,4,1,1
31,3,1,1
31,25,1,1
31,7,1,1
31,5,1,1
32,6,1,1
32,19,1,1
32,9,1,1
32,6,1,1
32,4,1,1
32,10,1,1
32,26,1,1
32,10,1,1
32,8,1,1
32,3,1,1
32,43,1,1
33,9,1,1
33,7,1,1
33,6,1,1
33,17,1,1
33,12,1,1
33,10,1,1
33,6,1,1
33,6,1,1
33,24,1,1
33,6,1,1
33,6,1,1
33,9,1,1
33,6,1,1
33,14,1,1
33,16,1,1
34,5,1,1
34,4,1,1
34,24,1,1
34,8,1,1
34,7,1,1
34,7,1,1
34,8,1,1
34,16,1,1
34,1,1,1
34,5,1,1
34,46,1,1
34,23,1,1
34,10,1,1
34,4,1,1
34,5,1,1
34,42,1,1
35,9,1,1
35,4,1,1
35,4,1,1
35,2,1,1
35,22,1,1
35,20,1,1
35,8,1,1
35,25,1,1
35,25,1,1
35,6,1,1
35,5,1,1
35,5,1,1
35,4,1,1
35,14,1,1
36,2,1,1
36,9,1,1
36,2,1,1
36,43,1,1
36,30,1,1
36,4,1,1
36,8,1,1
36,7,1,1
36,16,1,1
36,7,1,1
36,6,1,1
36,4,1,1
36,49,1,1
36,5,1,1
36,3,1,1
36,44,1,1
37,4,1,1
37,15,1,1
37,10,1,1
37,9,1,1
37,0,1,1
37,22,1,1
37,7,1,1
37,4,1,1
37,6,1,1
37,8,1,1
37,33,1,1
37,2,1,1
37,9,1,1
37,4,1,1
38,40,1,1
38,7,1,1
38,7,1,1
38,4,1,1
38,7,1,1
38,18,1,1
38,3,1,1
38,2,1,1
38,7,1,1
38,52,1,1
38,9,1,1
38,0,1,1
38,6,1,1
38,6,1,1
38,35,1,1
38,11,1,1
38,4,1,1
38,1,1,1
38,26,1,1
39,11,1,1
39,45,1,1
39,7,1,1
39,15,1,1
39,9,1,1
39,9,1,1
39,5,1,1
39,4,1,1
39,34,1,1
39,8,1,1
39,7,1,1
39,8,1,1
40,0,1,1
40,14,1,1
40,10,1,1
40,6,1,1
40,8,1,1
40,34,1,1
40,8,1,1
40,5,1,1
40,4,1,1
40,3,1,1
40,18,1,1
40,1,1,1
41,5,1,1
41,52,1,1
41,34,1,1
41,8,1,1
41,0,1,1
41,6,1,1
41,8,1,1
41,17,1,1
41,6,1,1
41,5,1,1
41,6,1,1
41,33,1,1
42,39,1,1
42,7,1,1
42,6,1,1
42,1,1,1
42,16,1,1
42,7,1,1
42,9,1,1
42,1,1,1
42,30,1,1
42,4,1,1
42,4,1,1
42,8,1,1
42,6,1,1
42,59,1,1
42,5,1,1
42,10,1,1
42,3,1,1
43,30,1,1
43,6,1,1
43,3,1,1
43,1,1,1
43,0,1,1
43,27,1,1
43,15,1,1
43,26,1,1
43,3,1,1
43,30,1,1
43,8,1,1
43,10,1,1
43,7,1,1
43,26,1,1
44,11,1,1
44,5,1,1
44,4,1,1
44,2,1,1
44,57,1,1
44,5,1,1
44,14,1,1
44,3,1,1
44,32,1,1
44,5,1,1
44,8,1,1
44,5,1,1
44,6,1,1
44,15,1,1
44,3,1,1
44,2,1,1
44,5,1,1
45,36,1,1
45,5,1,1
45,9,1,1
45,5,1,1
45,12,1,1
45,10,1,1
45,5,1,1
45,0,1,1
45,4,1,1
45,31,1,1
45,8,1,1
45,59,1,1
45,6,1,1
45,4,1,1
45,19,1,1
45,11,1,1
45,2,1,1
46,4,1,1
46,30,1,1
46,6,1,1
46,0,1,1
46,7,1,1
46,35,1,1
47,4,1,1
47,8,1,1
47,4,1,1
47,5,1,1
47,34,1,1
47,7,1,1
47,5,1,1
47,6,1,1
47,5,1,1
48,22,1,1
48,5,1,1
48,4,1,1
48,20,1,1
48,36,1,1
48,6,1,1
48,6,1,1
48,10,1,1
48,9,1,1
49,12,1,1
49,0,1,1
49,2,1,1
49,1,1,1
49,35,1,1
49,31,1,1
49,11,1,1
49,11,1,1
49,29,1,1
49,8,1,1
49,1,1,1
49,2,1,1
49,5,1,1
50,14,1,1
50,6,1,1
50,9,1,1
50,39,1,1
50,26,1,1
50,3,1,1
50,1,1,1
50,6,1,1
50,7,1,1
50,10,1,1
50,3,1,1
50,4,1,1
50,4,1,1
50,36,1,1
50,32,1,1
50,4,1,1
51,10,1,1
51,28,1,1
51,10,1,1
51,9,1,1
51,7,1,1
51,0,1,1
51,13,1,1
51,6,1,1
51,10,1,1
51,34,1,1
51,14,1,1
51,9,1,1
51,4,1,1
52,6,1,1
52,26,1,1
52,12,1,1
52,12,1,1
52,0,1,1
52,16,1,1
52,11,1,1
52,35,1,1
52,0,1,1
52,8,1,1
52,12,1,1
52,8,1,1
52,5,1,1
52,6,1,1
52,34,1,1
52,8,1,1
53,8,1,1
53,5,1,1
53,3,1,1
53,15,1,1
53,15,1,1
53,9,1,1
53,14,1,1
53,20,1,1
53,6,1,1
53,1,1,1
53,4,1,1
53,14,1,1
53,7,1,1
53,2,1,1
53,3,1,1
53,14,1,1
53,18,1,1
54,7,1,1
54,3,1,1
54,4,1,1
54,15,1,1
54,8,1,1
54,6,1,1
54,6,1,1
54,4,1,1
54,30,1,1
54,39,1,1
54,3,1,1
54,5,1,1
54,20,1,1
54,13,1,1
54,11,1,1
54,17,1,1
55,45,1,1
55,7,1,1
55,4,1,1
55,2,1,1
55,37,1,1
55,7,1,1
55,12,1,1
55,6,1,1
55,6,1,1
55,37,1,1
55,6,1,1
55,4,1,1
55,8,1,1
55,7,1,1
55,16,1,1
55,12,1,1
55,4,1,1
56,4,1,1
56,37,1,1
56,8,1,1
56,3,1,1
56,7,1,1
56,3,1,1
56,18,1,1
56,4,1,1
56,0,1,1
56,1,1,1
57,14,1,1
57,26,1,1
57,5,1,1
57,2,1,1
57,6,1,1
57,14,1,1
57,2,1,1
57,3,1,1
57,2,1,1
57,15,1,1
57,4,1,1
57,3,1,1
57,32,1,1
58,17,1,1
58,45,1,1
58,18,1,1
58,0,1,1
58,0,1,1
58,17,1,1
58,8,1,1
58,11,1,1
58,0,1,1
58,34,1,1
58,46,1,1
58,9,1,1
58,5,1,1
58,3,1,1
58,13,1,1
58,10,1,1
59,7,1,1
59,0,1,1
59,16,1,1
59,2,1,1
59,15,1,1
59,33,1,1
59,21,1,1
59,8,1,1
59,9,1,1
59,11,1,1
59,25,1,1
59,3,1,1
59,1,1,1
59,5,1,1
59,2,1,1
59,20,1,1
59,17,1,1
60,3,1,1
60,6,1,1
60,27,1,1
60,3,1,1
60,4,1,1
60,5,1,1
60,1,1,1
60,20,1,1
60,7,1,1
60,8,1,1
60,6,1,1
60,0,1,1
60,43,1,1
60,5,1,1
60,10,1,1
60,2,1,1
60,18,1,1
61,4,1,1
61,6,1,1
61,4,1,1
61,3,1,1
61,10,1,1
61,9,1,1
61,30,1,1
61,0,1,1
61,19,1,1
61,4,1,1
61,0,1,1
61,8,1,1
61,1,1,1
61,10,1,1
61,5,1,1
61,9,1,1
61,19,1,1
61,17,1,1
62,4,1,1
62,0,1,1
62,0,1,1
62,4,1,1
62,13,1,1
63,14,1,1
63,10,1,1
63,8,1,1
63,5,1,1
63,5,1,1
63,0,1,1
63,0,1,1
63,32,1,1
63,8,1,1
63,4,1,1
63,8,1,1
63,5,1,1
64,30,1,1
64,6,1,1
64,6,1,1
64,4,1,1
64,9,1,1
64,17,1,1
64,13,1,1
64,1,1,1
64,1,1,1
64,26,1,1
64,5,1,1
64,3,1,1
64,5,1,1
64,5,1,1
64,14,1,1
65,0,1,1
65,0,1,1
65,0,1,1
65,30,1,1
65,30,1,1
65,6,1,1
65,0,1,1
65,0,1,1
65,11,1,1
65,8,1,1
66,12,1,1
66,11,1,1
66,14,1,1
66,0,1,1
66,9,1,1
66,33,1,1
66,31,1,1
66,2,1,1
66,2,1,1
67,8,1,1
67,8,1,1
67,14,1,1
67,7,1,1
67,4,1,1
67,8,1,1
67,29,1,1
67,41,1,1
67,0,1,1
67,2,1,1
67,4,1,1
67,16,1,1
68,8,1,1
68,5,1,1
68,2,1,1
68,30,1,1
68,8,1,1
68,7,1,1
68,2,1,1
68,4,1,1
68,48,1,1
68,12,1,1
68,9,1,1
68,1,1,1
68,34,1,1
68,8,1,1
69,4,1,1
69,8,1,1
69,9,1,1
69,22,1,1
69,14,1,1
69,29,1,1
69,12,1,1
69,18,1,1
69,0,1,1
69,7,1,1
69,5,1,1
69,26,1,1
69,3,1,1
69,0,1,1
69,0,1,1
69,3,1,1
70,40,1,1
70,13,1,1
70,11,1,1
70,1,1,1
70,33,1,1
70,4,1,1
70,8,1,1
70,3,1,1
70,6,1,1
70,14,1,1
70,6,1,1
70,16,1,1
70,5,1,1
70,61,1,1
70,10,1,1
70,10,1,1
70,10,1,1
70,22,1,1
70,10,1,1
70,16,1,1
70,5,1,1
70,23,1,1
70,59,1,1
70,10,1,1
71,5,1,1
71,25,1,1
71,36,1,1
71,25,1,1
71,5,1,1
71,29,1,1
71,6,1,1
71,7,1,1
71,9,1,1
71,21,1,1
71,14,1,1
71,9,1,1
71,1,1,1
71,2,1,1
71,30,1,1
71,11,1,1
72,3,1,1
72,9,1,1
72,18,1,1
72,7,1,1
72,32,1,1
72,1,1,1
72,0,1,1
72,14,1,1
72,12,1,1
72,10,1,1
73,7,1,1
73,18,1,1
73,13,1,1
73,7,1,1
73,5,1,1
73,55,1,1
73,15,1,1
73,13,1,1
73,9,1,1
74,28,1,1
74,7,1,1
74,6,1,1
74,5,1,1
74,8,1,1
74,22,1,1
74,11,1,1
74,43,1,1
74,0,1,1
74,24,1,1
74,13,1,1
74,0,1,1
74,2,1,1
75,25,1,1
75,10,1,1
75,6,1,1
75,10,1,1
75,14,1,1
75,30,1,1
75,3,1,1
75,6,1,1
75,3,1,1
75,17,1,1
75,8,1,1
75,9,1,1
75,4,1,1
76,19,1,1
76,6,1,1
76,8,1,1
76,28,1,1
76,8,1,1
76,19,1,1
76,12,1,1
76,12,1,1
76,9,1,1
76,19,1,1
76,0,1,1
76,5,1,1
76,5,1,1
76,6,1,1
76,16,1,1
76,11,1,1
77,8,1,1
77,0,1,1
77,17,1,1
77,2,1,1
77,7,1,1
77,7,1,1
77,9,1,1
77,10,1,1
78,6,1,1
78,6,1,1
78,3,1,1
78,44,1,1
78,5,1,1
78,2,1,1
78,7,1,1
78,16,1,1
78,9,1,1
78,2,1,1
79,0,1,1
79,0,1,1
79,24,1,1
79,8,1,1
79,25,1,1
79,7,1,1
79,6,1,1
79,8,1,1
79,0,1,1
79,0,1,1
79,2,1,1
79,1,1,1
79,13,1,1
80,12,1,1
80,12,1,1
80,11,1,1
80,0,1,1
80,8,1,1
80,9,1,1
80,0,1,1
80,29,1,1
80,10,1,1
80,3,1,1
80,4,1,1
80,3,1,1
81,8,1,1
81,3,1,1
81,7,1,1
81,28,1,1
81,27,1,1
81,10,1,1
81,4,1,1
81,4,1,1
81,3,1,1
82,8,1,1
82,5,1,1
82,4,1,1
82,1,1,1
82,3,1,1
82,8,1,1
82,5,1,1
82,12,1,1
82,5,1,1
82,33,1,1
83,1,1,1
83,8,1,1
83,13,1,1
83,12,1,1
83,5,1,1
83,0,1,1
83,1,1,1
83,18,1,1
83,44,1,1
83,10,1,1
83,0,1,1
83,0,1,1
83,26,1,1
83,7,1,1
83,8,1,1
84,0,1,1
84,2,1,1
84,13,1,1
84,3,1,1
84,32,1,1
84,3,1,1
84,28,1,1
84,5,1,1
84,4,1,1
84,2,1,1
84,5,1,1
84,13,1,1
84,4,1,1
84,7,1,1
84,2,1,1
85,13,1,1
85,2,1,1
85,9,1,1
85,3,1,1
85,7,1,1
85,23,1,1
85,2,1,1
85,0,1,1
85,3,1,1
85,4,1,1
85,16,1,1
85,0,1,1
85,12,1,1
85,38,1,1
85,15,1,1
85,2,1,1
85,4,1,1
85,5,1,1
86,13,1,1
86,7,1,1
86,2,1,1
86,4,1,1
86,5,1,1
86,24,1,1
86,11,1,1
86,7,1,1
86,6,1,1
86,21,1,1
86,8,1,1
86,3,1,1
86,0,1,1
86,0,1,1
86,23,1,1
86,6,1,1
87,0,1,1
87,2,1,1
87,7,1,1
87,44,1,1
87,7,1,1
87,9,1,1
87,8,1,1
87,33,1,1
87,4,1,1
87,6,1,1
87,6,1,1
87,6,1,1
87,20,1,1
87,6,1,1
87,9,1,1
87,4,1,1
87,5,1,1
88,12,1,1
88,3,1,1
88,8,1,1
88,2,1,1
88,30,1,1
88,5,1,1
88,5,1,1
88,0,1,1
88,3,1,1
88,17,1,1
89,36,1,1
89,9,1,1
89,11,1,1
89,16,1,1
89,0,1,1
89,0,1,1
89,0,1,1
90,10,1,1
90,8,1,1
90,2,1,1
91,1,1,1
91,33,1,1
91,17,1,1
91,7,1,1
91,5,1,1
91,6,1,1
91,12,1,1
91,12,1,1
91,5,1,1
91,4,1,1
91,3,1,1
91,16,1,1
92,6,1,1
92,5,1,1
92,10,1,1
92,31,1,1
92,8,1,1
92,5,1,1
92,5,1,1
92,5,1,1
92,15,1,1
92,1,1,1
92,0,1,1
92,5,1,1
92,21,1,1
92,30,1,1
92,16,1,1
92,0,1,1
92,10,1,1
93,13,1,1
93,3,1,1
93,9,1,1
93,2,1,1
93,17,1,1
93,0,1,1
93,5,1,1
93,21,1,1
93,32,1,1
93,8,1,1
93,3,1,1
93,3,1,1
93,4,1,1
93,18,1,1
94,1,1,1
94,7,1,1
94,0,1,1
94,13,1,1
94,32,1,1
94,6,1,1
94,14,1,1
94,3,1,1
94,11,1,1
94,1,1,1
94,0,1,1
94,1,1,1
94,32,1,1
94,12,1,1
94,9,1,1
94,0,1,1
95,0,1,1
95,13,1,1
95,0,1,1
95,3,1,1
95,4,1,1
95,31,1,1
95,6,1,1
95,10,1,1
95,0,1,1
95,1,1,1
95,10,1,1
95,5,1,1
95,17,1,1
95,7,1,1
95,18,1,1
96,9,1,1
96,4,1,1
96,3,1,1
96,6,1,1
96,7,1,1
96,1,1,1
96,3,1,1
96,7,1,1
96,23,1,1
96,8,1,1
96,8,1,1
96,1,1,1
96,7,1,1
96,23,1,1
96,7,1,1
96,2,1,1
96,3,1,1
96,3,1,1
96,12,1,1
97,2,1,1
97,1,1,1
97,33,1,1
97,21,1,1
97,8,1,1
97,6,1,1
97,3,1,1
97,0,1,1
97,9,1,1
97,1,1,1
97,3,1,1
98,2,1,1
98,9,1,1
98,9,1,1
98,3,1,1
98,27,1,1
98,0,1,1
98,32,1,1
98,10,1,1
98,8,1,1
99,1,1,1
99,4,1,1
99,8,1,1
99,7,1,1
99,7,1,1
99,2,1,1
99,40,1,1
99,3,1,1
99,13,1,1
99,8,1,1
99,2,1,1
99,10,1,1
99,1,1,1
99,2,1,1
99,6,1,1
100,21,1,1
100,6,1,1
100,4,1,1
100,9,1,1
100,14,1,1
100,16,1,1
100,0,1,1
100,0,1,1
100,2,1,1
100,22,1,1
100,9,1,1
100,3,1,1
100,8,1,1
100,0,1,1
100,22,1,1
100,26,1,1
100,5,1,1
100,4,1,1
101,25,1,1
101,10,1,1
101,9,1,1
101,2,1,1
101,1,1,1
101,9,1,1
101,6,1,1
101,0,1,1
101,14,1,1
101,29,1,1
101,5,1,1
101,6,1,1
101,4,1,1
101,2,1,1
101,16,1,1
101,1,1,1
102,5,1,1
102,5,1,1
102,6,1,1
102,9,1,1
102,5,1,1
102,25,1,1
102,6,1,1
102,32,1,1
102,1,1,1
102,0,1,1
102,7,1,1
102,4,1,1
102,12,1,1
102,1,1,1
102,4,1,1
102,3,1,1
102,17,1,1
102,10,1,1
103,15,1,1
103,0,1,1
103,4,1,1
103,8,1,1
103,4,1,1
103,5,1,1
103,4,1,1
103,13,1,1
103,4,1,1
103,3,1,1
103,3,1,1
103,16,1,1
103,12,1,1
103,8,1,1
103,3,1,1
103,8,1,1
104,13,1,1
104,5,1,1
104,3,1,1
104,2,1,1
104,3,1,1
104,21,1,1
104,36,1,1
104,8,1,1
104,12,1,1
104,27,1,1
104,2,1,1
104,0,1,1
104,1,1,1
104,5,1,1
104,14,1,1
104,4,1,1
104,8,1,1
104,9,1,1
105,14,1,1
105,3,1,1
105,3,1,1
105,4,1,1
105,1,1,1
105,22,1,1
105,3,1,1
105,6,1,1
105,1,1,1
105,0,1,1
105,8,1,1
105,8,1,1
105,30,1,1
105,6,1,1
106,25,1,1
106,3,1,1
106,5,1,1
106,2,1,1
106,3,1,1
106,17,1,1
106,3,1,1
106,3,1,1
106,4,1,1
106,3,1,1
106,9,1,1
106,9,1,1
106,4,1,1
106,7,1,1
106,13,1,1
106,7,1,1
107,0,1,1
107,3,1,1
107,6,1,1
107,20,1,1
107,3,1,1
107,2,1,1
107,12,1,1
107,15,1,1
107,7,1,1
107,7,1,1
107,7,1,1
107,3,1,1
107,22,1,1
107,0,1,1
108,2,1,1
108,2,1,1
108,3,1,1
108,11,1,1
108,8,1,1
108,23,1,1
108,0,1,1
108,20,1,1
108,3,1,1
108,15,1,1
108,9,1,1
108,20,1,1
108,3,1,1
109,5,1,1
109,3,1,1
109,0,1,1
109,40,1,1
109,1,1,1
109,4,1,1
109,5,1,1
109,2,1,1
109,10,1,1
109,0,1,1
109,1,1,1
109,4,1,1
109,20,1,1
109,6,1,1
109,0,1,1
109,1,1,1
109,23,1,1
109,12,1,1
110,6,1,1
110,0,1,1
110,1,1,1
110,24,1,1
110,0,1,1
110,3,1,1
110,9,1,1
110,4,1,1
110,15,1,1
110,24,1,1
110,0,1,1
110,0,1,1
110,25,1,1
110,6,1,1
110,6,1,1
110,7,1,1
110,4,1,1
110,15,1,1
111,4,1,1
111,0,1,1
111,4,1,1
111,4,1,1
111,32,1,1
111,14,1,1
111,1,1,1
111,0,1,1
111,13,1,1
111,4,1,1
111,3,1,1
111,10,1,1
111,24,1,1
111,5,1,1
111,3,1,1
111,8,1,1
111,0,1,1
112,14,1,1
112,0,1,1
112,3,1,1
112,0,1,1
112,7,1,1
112,7,1,1
112,6,1,1
112,0,1,1
112,0,1,1
112,10,1,1
112,5,1,1
112,8,1,1
112,6,1,1
112,7,1,1
112,20,1,1
112,5,1,1
112,0,1,1
112,2,1,1
113,3,1,1
113,13,1,1
113,3,1,1
113,0,1,1
113,35,1,1
113,20,1,1
113,5,1,1
113,3,1,1
113,6,1,1
113,0,1,1
113,9,1,1
113,3,1,1
113,6,1,1
113,3,1,1
113,0,1,1
113,5,1,1
113,7,1,1
113,16,1,1
114,6,1,1
114,23,1,1
114,2,1,1
114,6,1,1
114,0,1,1
114,0,1,1
114,14,1,1
114,0,1,1
114,2,1,1
114,7,1,1
114,19,1,1
114,5,1,1
114,14,1,1
115,1,1,1
115,0,1,1
115,13,1,1
115,8,1,1
115,6,1,1
115,0,1,1
115,3,1,1
115,6,1,1
115,4,1,1
115,6,1,1
115,38,1,1
115,24,1,1
115,8,1,1
115,5,1,1
115,2,1,1
115,0,1,1
116,9,1,1
116,4,1,1
116,8,1,1
116,1,1,1
116,2,1,1
116,10,1,1
116,1,1,1
116,44,1,1
116,10,1,1
116,13,1,1
116,3,1,1
116,1,1,1
116,5,1,1
116,15,1,1
116,6,1,1
116,0,1,1
116,4,1,1
117,0,1,1
117,24,1,1
117,4,1,1
117,4,1,1
117,2,1,1
117,8,1,1
117,12,1,1
117,4,1,1
118,2,1,1
118,3,1,1
118,23,1,1
118,6,1,1
118,22,1,1
118,1,1,1
118,2,1,1
118,11,1,1
118,5,1,1
118,1,1,1
118,2,1,1
118,23,1,1
118,6,1,1
118,3,1,1
118,0,1,1
118,0,1,1
118,19,1,1
119,11,1,1
119,4,1,1
119,8,1,1
119,23,1,1
119,2,1,1
119,1,1,1
119,0,1,1
119,4,1,1
119,18,1,1
119,2,1,1
119,4,1,1
119,33,1,1
119,24,1,1
119,17,1,1
119,0,1,1
119,0,1,1
119,2,1,1
119,13,1,1
120,7,1,1
120,3,1,1
120,5,1,1
120,24,1,1
120,22,1,1
120,8,1,1
120,2,1,1
120,6,1,1
120,14,1,1
120,16,1,1
120,1,1,1
120,0,1,1
120,20,1,1
120,7,1,1
120,8,1,1
120,0,1,1
120,2,1,1
121,25,1,1
121,9,1,1
121,4,1,1
121,8,1,1
121,25,1,1
121,4,1,1
121,4,1,1
121,11,1,1
121,13,1,1
121,3,1,1
121,2,1,1
121,31,1,1
121,10,1,1
121,7,1,1
121,0,1,1
121,0,1,1
121,3,1,1
121,13,1,1
122,10,1,1
122,7,1,1
122,3,1,1
122,4,1,1
122,34,1,1
122,3,1,1
122,9,1,1
122,9,1,1
122,13,1,1
122,0,1,1
122,6,1,1
122,4,1,1
122,13,1,1
122,18,1,1
122,0,1,1
122,1,1,1
123,3,1,1
123,13,1,1
123,9,1,1
123,18,1,1
123,1,1,1
123,1,1,1
123,15,1,1
123,7,1,1
123,0,1,1
123,8,1,1
123,5,1,1
123,4,1,1
123,36,1,1
123,5,1,1
124,10,1,1
124,14,1,1
124,3,1,1
124,5,1,1
124,3,1,1
124,13,1,1
125,2,1,1
125,0,1,1
125,2,1,1
125,0,1,1
125,22,1,1
125,18,1,1
125,2,1,1
125,0,1,1
125,11,1,1
126,16,1,1
126,7,1,1
126,0,1,1
126,8,1,1
126,17,1,1
126,2,1,1
126,0,1,1
126,13,1,1
126,32,1,1
126,12,1,1
126,1,1,1
126,0,1,1
126,4,1,1
127,9,1,1
127,1,1,1
127,0,1,1
127,0,1,1
127,25,1,1
127,43,1,1
127,1,1,1
127,19,1,1
127,11,1,1
127,0,1,1
128,2,1,1
128,0,1,1
128,0,1,1
128,25,1,1
128,8,1,1
128,0,1,1
128,17,1,1
128,3,1,1
128,11,1,1
128,3,1,1
129,4,1,1
129,0,1,1
129,23,1,1
129,5,1,1
129,0,1,1
129,0,1,1
129,10,1,1
129,6,1,1
130,0,1,1
130,6,1,1
130,1,1,1
130,15,1,1
130,2,1,1
130,2,1,1
130,0,1,1
130,0,1,1
130,16,1,1
130,11,1,1
130,8,1,1
130,8,1,1
130,36,1,1
131,11,1,1
131,38,1,1
131,10,1,1
131,28,1,1
131,8,1,1
131,11,1,1
131,0,1,1
131,5,1,1
131,9,1,1
132,2,1,1
132,32,1,1
132,2,1,1
132,28,1,1
132,4,1,1
132,8,1,1
132,4,1,1
132,3,1,1
132,14,1,1
132,3,1,1
132,3,1,1
132,5,1,1
132,15,1,1
133,8,1,1
133,20,1,1
133,7,1,1
133,11,1,1
133,7,1,1
133,0,1,1
133,0,1,1
133,5,1,1
133,16,1,1
133,8,1,1
133,7,1,1
133,5,1,1
133,40,1,1
133,18,1,1
133,3,1,1
133,6,1,1
133,6,1,1
134,18,1,1
134,8,1,1
134,0,1,1
134,0,1,1
134,4,1,1
134,29,1,1
134,11,1,1
134,8,1,1
134,6,1,1
134,16,1,1
134,8,1,1
134,9,1,1
134,0,1,1
134,0,1,1
134,27,1,1
134,8,1,1
134,5,1,1
134,2,1,1
134,10,1,1
134,25,1,1
134,12,1,1
134,0,1,1
134,5,1,1
134,14,1,1
134,9,1,1
134,7,1,1
134,2,1,1
136,17,1,1
136,3,1,1
136,11,1,1
136,36,1,1
136,4,1,1
136,19,1,1
136,12,1,1
136,10,1,1
136,2,1,1
136,5,1,1
136,4,1,1
136,14,1,1
136,19,1,1
136,20,1,1
136,25,1,1
136,0,1,1
136,0,1,1
136,27,1,1
136,7,1,1
136,1,1,1
136,0,1,1
136,6,1,1
136,17,1,1
136,2,1,1
136,3,1,1
136,22,1,1
136,23,1,1
137,11,1,1
137,10,1,1
137,0,1,1
137,21,1,1
137,12,1,1
137,17,1,1
137,0,1,1
137,16,1,1
137,1,1,1
137,33,1,1
137,7,1,1
137,10,1,1
137,13,1,1
137,10,1,1
137,5,1,1
137,4,1,1
138,14,1,1
138,2,1,1
138,0,1,1
138,4,1,1
138,32,1,1
138,25,1,1
138,23,1,1
138,0,1,1
138,0,1,1
138,10,1,1
138,0,1,1
138,0,1,1
138,0,1,1
139,29,1,1
139,14,1,1
139,38,1,1
140,8,1,1
140,24,1,1
140,10,1,1
140,17,1,1
140,0,1,1
140,24,1,1
140,11,1,1
140,0,1,1
140,0,1,1
141,11,1,1
141,22,1,1
141,2,1,1
141,6,1,1
141,6,1,1
141,25,1,1
141,4,1,1
142,5,1,1
142,6,1,1
142,13,1,1
142,8,1,1
142,3,1,1
142,17,1,1
142,2,1,1
143,33,1,1
143,4,1,1
143,18,1,1
143,17,1,1
143,29,1,1
143,9,1,1
143,0,1,1
143,12,1,1
143,16,1,1
143,39,1,1
143,5,1,1
143,4,1,1
144,9,1,1
144,15,1,1
144,7,1,1
144,2,1,1
144,2,1,1
144,18,1,1
144,1,1,1
144,1,1,1
144,2,1,1
144,3,1,1
144,27,1,1
144,6,1,1
144,3,1,1
144,2,1,1
144,4,1,1
144,13,1,1
145,6,1,1
145,3,1,1
145,6,1,1
145,25,1,1
145,9,1,1
145,31,1,1
145,0,1,1
145,0,1,1
145,8,1,1
145,11,1,1
145,6,1,1
145,8,1,1
145,27,1,1
146,14,1,1
146,0,1,1
146,0,1,1
146,7,1,1
146,7,1,1
146,5,1,1
146,5,1,1
146,0,1,1
146,10,1,1
146,14,1,1
146,10,1,1
146,4,1,1
146,0,1,1
146,12,1,1
146,5,1,1
146,13,1,1
146,9,1,1
146,19,1,1
147,7,1,1
147,10,1,1
147,11,1,1
147,24,1,1
147,14,1,1
147,0,1,1
147,0,1,1
147,33,1,1
147,6,1,1
147,6,1,1
148,4,1,1
148,9,1,1
148,23,1,1
148,10,1,1
148,9,1,1
148,9,1,1
148,32,1,1
148,8,1,1
148,0,1,1
149,4,1,1
149,40,1,1
149,24,1,1
149,15,1,1
149,4,1,1
149,0,1,1
149,22,1,1
149,13,1,1
150,0,1,1
150,5,1,1
150,27,1,1
150,6,1,1
150,36,1,1
150,7,1,1
150,13,1,1
150,6,1,1
150,3,1,1
150,3,1,1
150,20,1,1
151,29,1,1
151,0,1,1
151,1,1,1
151,9,1,1
151,10,1,1
151,9,1,1
151,13,1,1
151,3,1,1
151,4,1,1
152,24,1,1
152,0,1,1
152,0,1,1
152,1,1,1
152,11,1,1
152,16,1,1
152,9,1,1
152,0,1,1
152,35,1,1
153,14,1,1
153,4,1,1
153,5,1,1
153,7,1,1
153,20,1,1
153,4,1,1
153,2,1,1
153,4,1,1
153,0,1,1
153,25,1,1
153,26,1,1
154,10,1,1
154,4,1,1
154,27,1,1
154,9,1,1
154,1,1,1
154,4,1,1
154,3,1,1
154,15,1,1
154,4,1,1
154,5,1,1
154,23,1,1
154,24,1,1
154,1,1,1
155,5,1,1
155,0,1,1
155,3,1,1
155,12,1,1
155,5,1,1
155,6,1,1
155,3,1,1
155,25,1,1
155,2,1,1
156,2,1,1
156,13,1,1
156,7,1,1
156,14,1,1
156,9,1,1
156,11,1,1
156,0,1,1
156,24,1,1
156,5,1,1
156,5,1,1
156,0,1,1
156,11,1,1
157,35,1,1
157,0,1,1
157,7,1,1
157,7,1,1
157,31,1,1
157,7,1,1
157,8,1,1
157,2,1,1
157,13,1,1
157,7,1,1
157,0,1,1
157,21,1,1
157,5,1,1
158,55,1,1
158,16,1,1
158,5,1,1
158,8,1,1
158,20,1,1
158,7,1,1
158,12,1,1
158,3,1,1
158,0,1,1
158,15,1,1
158,7,1,1
158,8,1,1
159,15,1,1
159,37,1,1
159,6,1,1
159,2,1,1
159,7,1,1
159,5,1,1
159,16,1,1
159,12,1,1
159,13,1,1
159,2,1,1
159,26,1,1
159,0,1,1
159,0,1,1
159,0,1,1
159,16,1,1
159,15,1,1
160,0,1,1
160,17,1,1
160,1,1,1
160,7,1,1
160,10,1,1
160,21,1,1
160,0,1,1
160,23,1,1
160,5,1,1
160,12,1,1
160,1,1,1
160,34,1,1
160,0,1,1
160,0,1,1
160,0,1,1
160,6,1,1
161,45,1,1
161,8,1,1
161,2,1,1
161,4,1,1
161,17,1,1
161,1,1,1
161,9,1,1
161,0,1,1
161,4,1,1
161,37,1,1
161,11,1,1
161,8,1,1
161,4,1,1
161,7,1,1
161,19,1,1
161,13,1,1
161,1,1,1
162,4,1,1
162,18,1,1
162,0,1,1
162,6,1,1
162,14,1,1
162,33,1,1
162,0,1,1
162,7,1,1
162,6,1,1
162,10,1,1
162,16,1,1
162,0,1,1
162,0,1,1
162,6,1,1
162,36,1,1
162,12,1,1
162,15,1,1
163,3,1,1
163,57,1,1
163,7,1,1
163,3,1,1
163,0,1,1
163,6,1,1
163,24,1,1
163,8,1,1
163,1,1,1
163,7,1,1
163,8,1,1
163,6,1,1
163,11,1,1
163,4,1,1
163,6,1,1
163,34,1,1
163,8,1,1
163,12,1,1
163,4,1,1
164,9,1,1
164,7,1,1
164,0,1,1
164,5,1,1
164,0,1,1
164,20,1,1
164,29,1,1
164,10,1,1
164,2,1,1
164,15,1,1
164,11,1,1
164,0,1,1
164,8,1,1
164,7,1,1
164,19,1,1
165,10,1,1
165,9,1,1
165,11,1,1
165,22,1,1
165,0,1,1
165,14,1,1
165,9,1,1
165,39,1,1
165,8,1,1
165,0,1,1
165,6,1,1
165,0,1,1
165,19,1,1
165,26,1,1
165,9,1,1
166,1,1,1
166,41,1,1
166,13,1,1
166,13,1,1
166,0,1,1
166,34,1,1
166,8,1,1
166,1,1,1
166,7,1,1
166,43,1,1
167,21,1,1
167,7,1,1
167,6,1,1
167,8,1,1
167,30,1,1
167,7,1,1
167,0,1,1
167,7,1,1
167,0,1,1
167,26,1,1
167,19,1,1
167,10,1,1
167,9,1,1
167,29,1,1
167,6,1,1
167,0,1,1
167,7,1,1
167,14,1,1
168,17,1,1
168,3,1,1
168,0,1,1
168,5,1,1
168,28,1,1
168,16,1,1
168,10,1,1
168,9,1,1
168,36,1,1
168,7,1,1
168,13,1,1
168,20,1,1
168,41,1,1
168,4,1,1
168,28,1,1
169,5,1,1
169,14,1,1
169,7,1,1
169,3,1,1
169,8,1,1
169,8,1,1
169,37,1,1
169,9,1,1
169,0,1,1
169,0,1,1
169,9,1,1
169,15,1,1
169,15,1,1
169,11,1,1
169,0,1,1
169,15,1,1
169,14,1,1
170,0,1,1
170,0,1,1
170,42,1,1
170,9,1,1
170,6,1,1
170,12,1,1
170,23,1,1
170,18,1,1
170,25,1,1
170,19,1,1
170,33,1,1
171,4,1,1
171,11,1,1
171,3,1,1
171,3,1,1
171,11,1,1
171,7,1,1
171,15,1,1
171,0,1,1
171,29,1,1
171,14,1,1
171,9,1,1
171,0,1,1
171,24,1,1
171,6,1,1
171,8,1,1
172,4,1,1
172,6,1,1
172,46,1,1
172,3,1,1
172,16,1,1
172,8,1,1
172,33,1,1
172,5,1,1
172,5,1,1
172,8,1,1
172,4,1,1
172,25,1,1
173,0,1,1
173,44,1,1
173,6,1,1
173,30,1,1
173,1,1,1
173,0,1,1
173,0,1,1
174,8,1,1
174,25,1,1
174,2,1,1
174,5,1,1
174,0,1,1
174,4,1,1
174,16,1,1
174,5,1,1
174,0,1,1
174,0,1,1
174,34,1,1
174,5,1,1
174,0,1,1
174,0,1,1
174,12,1,1
175,10,1,1
175,8,1,1
175,9,1,1
175,40,1,1
175,20,1,1
175,6,1,1
175,7,1,1
175,4,1,1
175,5,1,1
175,12,1,1
175,6,1,1
175,22,1,1
175,8,1,1
175,21,1,1
175,40,1,1
176,3,1,1
176,7,1,1
176,34,1,1
176,8,1,1
176,1,1,1
176,6,1,1
176,8,1,1
176,21,1,1
176,3,1,1
176,2,1,1
176,0,1,1
176,10,1,1
176,12,1,1
176,5,1,1
176,8,1,1
176,7,1,1
176,16,1,1
177,0,1,1
177,1,1,1
177,9,1,1
177,14,1,1
177,2,1,1
177,12,1,1
177,24,1,1
177,0,1,1
177,16,1,1
177,4,1,1
177,8,1,1
177,0,1,1
177,29,1,1
177,8,1,1
177,2,1,1
177,0,1,1
178,0,1,1
178,34,1,1
178,18,1,1
178,11,1,1
178,6,1,1
178,19,1,1
178,2,1,1
178,4,1,1
178,3,1,1
178,7,1,1
178,11,1,1
178,6,1,1
178,9,1,1
178,4,1,1
178,33,1,1
178,7,1,1
179,5,1,1
179,0,1,1
179,8,1,1
179,16,1,1
179,8,1,1
179,7,1,1
179,1,1,1
179,20,1,1
179,0,1,1
179,40,1,1
179,0,1,1
179,7,1,1
179,14,1,1
179,10,1,1
179,6,1,1
179,11,1,1
179,16,1,1
180,0,1,1
180,0,1,1
180,2,1,1
180,41,1,1
180,8,1,1
180,3,1,1
180,4,1,1
180,7,1,1
180,23,1,1
180,2,1,1
180,6,1,1
180,6,1,1
180,3,1,1
180,11,1,1
180,7,1,1
180,10,1,1
180,9,1,1
181,21,1,1
181,49,1,1
181,14,1,1
181,13,1,1
181,16,1,1
181,7,1,1
181,3,1,1
181,2,1,1
181,17,1,1
181,3,1,1
181,8,1,1
181,5,1,1
181,1,1,1
182,28,1,1
182,6,1,1
182,3,1,1
182,6,1,1
182,6,1,1
182,12,1,1
182,4,1,1
182,13,1,1
182,45,1,1
182,15,1,1
182,3,1,1
182,2,1,1
182,2,1,1
182,21,1,1
182,2,1,1
183,5,1,1
183,5,1,1
183,1,1,1
183,26,1,1
183,25,1,1
183,6,1,1
183,11,1,1
183,26,1,1
183,10,1,1
183,0,1,1
183,18,1,1
183,36,1,1
183,0,1,1
183,9,1,1
183,0,1,1
183,26,1,1
184,14,1,1
184,6,1,1
184,4,1,1
184,6,1,1
184,35,1,1
184,7,1,1
184,5,1,1
184,7,1,1
184,1,1,1
184,15,1,1
184,6,1,1
184,2,1,1
184,8,1,1
184,12,1,1
184,10,1,1
184,4,1,1
184,2,1,1
184,1,1,1
185,12,1,1
185,11,1,1
185,11,1,1
185,0,1,1
185,20,1,1
185,6,1,1
185,4,1,1
185,11,1,1
185,30,1,1
185,4,1,1
185,0,1,1
185,4,1,1
185,1,1,1
185,18,1,1
186,5,1,1
186,5,1,1
186,33,1,1
186,34,1,1
186,10,1,1
186,4,1,1
186,5,1,1
186,3,1,1
186,15,1,1
186,4,1,1
186,0,1,1
186,0,1,1
186,33,1,1
186,20,1,1
186,6,1,1
186,9,1,1
186,6,1,1
187,12,1,1
187,2,1,1
187,16,1,1
187,4,1,1
187,20,1,1
187,2,1,1
187,0,1,1
187,3,1,1
187,6,1,1
187,20,1,1
187,1,1,1
187,6,1,1
187,0,1,1
187,32,1,1
187,8,1,1
187,0,1,1
188,2,1,1
188,2,1,1
188,14,1,1
188,7,1,1
188,31,1,1
188,2,1,1
188,31,1,1
188,6,1,1
188,4,1,1
188,6,1,1
188,11,1,1
188,4,1,1
188,0,1,1
188,4,1,1
188,4,1,1
188,16,1,1
188,5,1,1
189,10,1,1
189,8,1,1
189,0,1,1
189,17,1,1
189,1,1,1
189,0,1,1
189,0,1,1
189,19,1,1
189,8,1,1
189,1,1,1
189,1,1,1
189,41,1,1
189,17,1,1
189,1,1,1
190,0,1,1
190,6,1,1
190,22,1,1
190,0,1,1
190,9,1,1
190,5,1,1
190,0,1,1
190,24,1,1
190,14,1,1
190,0,1,1
190,16,1,1
190,28,1,1
190,6,1,1
191,0,1,1
191,6,1,1
191,6,1,1
191,17,1,1
191,0,1,1
191,2,1,1
191,0,1,1
191,19,1,1
191,21,1,1
191,1,1,1
191,0,1,1
191,8,1,1
191,16,1,1
191,3,1,1
194,4,1,1
194,2,1,1
198,21,1,1
203,7,1,1
203,1,1,1
206,39,1,1
206,1,1,1
210,15,1,1
210,6,1,1
214,6,1,1
214,5,1,1
218,20,1,1
219,5,1,1
223,4,1,1
226,4,1,1
226,6,1,1
231,25,1,1
231,6,1,1
235,25,1,1
235,4,1,1
239,16,1,1
240,1,1,1
243,11,1,1
244,3,1,1
248,7,1,1
252,17,1,1
252,2,1,1
256,17,1,1
256,0,1,1
260,49,1,1
260,12,1,1
264,7,1,1
264,0,1,1
268,12,1,1
268,10,1,1
272,7,1,1
272,4,1,1
276,0,1,1
280,13,1,1
280,3,1,1
284,22,1,1
285,8,1,1
288,30,1,1
288,0,1,1
293,5,1,1
293,6,1,1
297,2,1,1
297,18,1,1
301,15,1,1
305,2,1,1
305,4,1,1
309,40,1,1
309,2,1,1
313,18,1,1
313,13,1,1
317,31,1,1
317,0,1,1
321,5,1,1
321,1,1,1
325,9,1,1
329,17,1,1
329,30,1,1
333,33,1,1
333,0,1,1
337,25,1,1
337,5,1,1
342,11,1,1
342,7,1,1
346,30,1,1
346,7,1,1
350,3,1,1
354,0,1,1
354,5,1,1
358,24,1,1
358,8,1,1
362,5,1,1
362,5,1,1
366,12,1,1
366,9,1,1
370,8,1,1
370,2,1,1
375,8,1,1
379,27,1,1
379,7,1,1
383,5,1,1
383,6,1,1
387,31,1,1
387,19,1,1
391,11,1,1
391,0,1,1
395,0,1,1
395,20,1,1
399,20,1,1
399,3,1,1
403,0,1,1
407,46,1,1
407,2,1,1
411,35,1,1
411,4,1,1
416,15,1,1
416,2,1,1
420,9,1,1
420,11,1,1
424,1,1,1
424,18,1,1
428,8,1,1
432,16,1,1
432,1,1,1
436,45,1,1
436,3,1,1
440,6,1,1
440,5,1,1
444,29,1,1
444,24,1,1
448,14,1,1
448,0,1,1
452,7,1,1
456,15,1,1
456,3,1,1
460,40,1,1
461,13,1,1
464,21,1,1
465,23,1,1
469,7,1,1
469,0,1,1
472,31,1,1
472,5,1,1
476,19,1,1
480,10,1,1
481,27,1,1
484,26,1,1
485,5,1,1
489,11,1,1
489,24,1,1
493,8,1,1
493,0,1,1
497,2,1,1
497,7,1,1
501,34,1,1
505,15,1,1
505,0,1,1
509,29,1,1
509,30,1,1
513,19,1,1
513,12,1,1
517,0,1,1
517,36,1,1
521,6,1,1
521,5,1,1
525,8,1,1
529,1,1,1
530,15,1,1
534,26,1,1
534,10,1,1
539,17,1,1
539,11,1,1
543,16,1,1
543,8,1,1
547,10,1,1
551,14,1,1
551,14,1,1
555,18,1,1
555,0,1,1
558,76,1,1
558,6,1,1
562,11,1,1
562,7,1,1
566,31,1,1
567,8,1,1
570,6,1,1
570,4,1,1
575,5,1,1
579,16,1,1
579,17,1,1
583,23,1,1
583,5,1,1
587,24,1,1
587,1,1,1
591,0,1,1
592,12,1,1
596,33,1,1
600,11,1,1
600,8,1,1
604,14,1,1
604,30,1,1
608,1,1,1
608,5,1,1
612,2,1,1
612,1,1,1
616,23,1,1
616,8,1,1
620,9,1,1
620,4,1,1
624,11,1,1
628,3,1,1
628,8,1,1
632,43,1,1
633,2,1,1
636,24,1,1
637,14,1,1
641,1,1,1
641,6,1,1
644,35,1,1
644,5,1,1
649,2,1,1
653,0,1,1
653,8,1,1
657,35,1,1
657,20,1,1
661,9,1,1
661,4,1,1
665,35,1,1
665,11,1,1
669,2,1,1
669,2,1,1
673,10,1,1
677,7,1,1
677,3,1,1
681,2,1,1
681,1,1,1
685,49,1,1
685,9,1,1
689,40,1,1
689,0,1,1
693,0,1,1
693,6,1,1
698,4,1,1
698,1,1,1
702,12,1,1
706,36,1,1
706,8,1,1
710,46,1,1
710,7,1,1
714,17,1,1
714,9,1,1
718,6,1,1
718,2,1,1
722,1,1,1
722,32,1,1
726,9,1,1
730,12,1,1
730,0,1,1
734,41,1,1
734,6,1,1
738,10,1,1
739,0,1,1
742,6,1,1
743,20,1,1
747,6,1,1
747,3,1,1
751,2,1,1
755,11,1,1
755,6,1,1
759,18,1,1
759,0,1,1
763,9,1,1
763,16,1,1
767,10,1,1
767,12,1,1
772,13,1,1
772,10,1,1
776,8,1,1
779,7,1,1
779,0,1,1
784,41,1,1
785,5,1,1
789,7,1,1
789,1,1,1
793,16,1,1
793,11,1,1
797,7,1,1
797,5,1,1
800,0,1,1
804,34,1,1
804,11,1,1
808,8,1,1
809,3,1,1
813,19,1,1
813,11,1,1
817,1,1,1
817,3,1,1
821,5,1,1
821,23,1,1
825,8,1,1
825,4,1,1
829,12,1,1
833,30,1,1
833,0,1,1
837,41,1,1
837,8,1,1
841,10,1,1
841,14,1,1
845,6,1,1
845,0,1,1
849,3,1,1
850,29,1,1
853,6,1,1
858,8,1,1
858,5,1,1
862,37,1,1
862,12,1,1
866,14,1,1
866,8,1,1
870,15,1,1
870,5,1,1
874,0,1,1
874,0,1,1
878,13,1,1
882,30,1,1
882,1,1,1
886,37,1,1
886,9,1,1
890,21,1,1
890,4,1,1
894,3,1,1
894,6,1,1
898,1,1,1
899,26,1,1
903,14,1,1
907,0,1,1
907,2,1,1
911,21,1,1
911,14,1,1
915,1,1,1
915,2,1,1
919,2,1,1
919,19,1,1
923,1,1,1
923,4,1,1
927,7,1,1
931,20,1,1
932,31,1,1
935,29,1,1
936,15,1,1
939,35,1,1
939,0,1,1
943,0,1,1
944,4,1,1
948,0,1,1
948,19,1,1
952,10,1,1
955,0,1,1
955,1,1,1
960,39,1,1
960,11,1,1
964,15,1,1
965,0,1,1
969,28,1,1
969,1,1,1
972,5,1,1
972,5,1,1
976,1,1,1
980,20,1,1
980,11,1,1
984,7,1,1
985,0,1,1
989,50,1,1
989,10,1,1
993,8,1,1
993,0,1,1
997,5,1,1
997,13,1,1
1001,7,1,1
1001,4,1,1
1005,0,1,1
1009,36,1,1
1009,14,1,1
1013,50,1,1
1013,0,1,1
1017,26,1,1
1017,8,1,1
1021,7,1,1
1021,1,1,1
1025,8,1,1
1025,26,1,1
1029,1,1,1
1034,0,1,1
1034,0,1,1
1038,0,1,1
1038,11,1,1
1042,55,1,1
1042,2,1,1
1046,3,1,1
1046,21,1,1
1050,8,1,1
1051,10,1,1
1054,3,1,1
1059,32,1,1
1059,6,1,1
1063,3,1,1
1063,8,1,1
1067,26,1,1
1067,16,1,1
1071,18,1,1
1071,0,1,1
1074,0,1,1
1075,25,1,1
1079,12,1,1
1083,0,1,1
1083,1,1,1
1087,24,1,1
1087,14,1,1
1091,13,1,1
1091,6,1,1
1095,16,1,1
1095,5,1,1
1099,3,1,1
1099,9,1,1
1103,14,1,1
1107,16,1,1
1107,6,1,1
1111,0,1,1
1111,11,1,1
1116,60,1,1
1116,6,1,1
1120,9,1,1
1120,2,1,1
1124,5,1,1
1124,18,1,1
1128,9,1,1
1128,5,1,1
1132,0,1,1
1136,20,1,1
1136,11,1,1
1140,47,1,1
1140,6,1,1
1144,7,1,1
1144,9,1,1
1148,3,1,1
1148,0,1,1
1152,0,1,1
1152,23,1,1
1157,0,1,1
1160,0,1,1
1161,5,1,1
1166,5,1,1
1166,28,1,1
1169,55,1,1
1169,11,1,1
1174,11,1,1
1174,18,1,1
1178,17,1,1
1178,3,1,1
1181,2,1,1
1186,34,1,1
1186,9,1,1
1190,5,1,1
1190,0,1,1
1194,57,1,1
1194,16,1,1
1198,12,1,1
1198,3,1,1
1202,5,1,1
1202,19,1,1
1206,10,1,1
1210,1,1,1
1210,2,1,1
1214,37,1,1
1214,0,1,1
1218,14,1,1
1218,0,1,1
1222,2,1,1
1222,13,1,1
1226,3,1,1
1226,5,1,1
1231,11,1,1
1235,22,1,1
1235,3,1,1
1239,13,1,1
1239,0,1,1
1243,37,1,1
1243,12,1,1
1246,1,1,1
1246,1,1,1
1251,3,1,1
1251,13,1,1
1255,7,1,1
1255,0,1,1
1259,5,1,1
1264,32,1,1
1264,9,1,1
1268,54,1,1
1268,9,1,1
1271,5,1,1
1271,11,1,1
1275,18,1,1
1275,11,1,1
1280,10,1,1
1280,5,1,1
1283,8,1,1
1288,8,1,1
1288,9,1,1
1292,48,1,1
1292,3,1,1
1296,13,1,1
1296,2,1,1
1300,10,1,1
1300,11,1,1
1304,2,1,1
1304,0,1,1
1308,9,1,1
1312,27,1,1
1312,10,1,1
1316,39,1,1
1316,0,1,1
1321,49,1,1
1321,11,1,1
1325,16,1,1
1325,0,1,1
1329,35,1,1
1329,6,1,1
1333,6,1,1
1337,7,1,1
1337,0,1,1
1341,39,1,1
1341,7,1,1
1345,7,1,1
1345,1,1,1
1350,13,1,1
1350,8,1,1
1353,9,1,1
1354,0,1,1
1358,8,1,1
1362,29,1,1
1362,4,1,1
1366,8,1,1
1366,0,1,1
1370,44,1,1
1370,11,1,1
1374,5,1,1
1374,6,1,1
1378,0,1,1
1378,27,1,1
1382,3,1,1
1382,9,1,1
1386,0,1,1
1390,0,1,1
1391,14,1,1
1395,43,1,1
1395,1,1,1
1398,8,1,1
1399,26,1,1
1402,6,1,1
1402,4,1,1
1407,4,1,1
1407,1,1,1
1411,19,1,1
1414,0,1,1
1415,3,1,1
1418,0,1,1
1419,30,1,1
1423,17,1,1
1423,2,1,1
1427,6,1,1
1427,0,1,1
1431,15,1,1
1431,1,1,1
1435,0,1,1
1435,9,1,1
1439,34,1,1
1443,5,1,1
1443,4,1,1
1448,34,1,1
1448,4,1,1
1451,13,1,1
1451,7,1,1
1455,0,1,1
1456,0,1,1
1460,34,1,1
1460,6,1,1
1464,6,1,1
1468,2,1,1
1468,3,1,1
1472,19,1,1
1472,6,1,1
1476,14,1,1
1476,3,1,1
1480,36,1,1
1480,1,1,1
1484,10,1,1
1484,4,1,1
1488,0,1,1
1492,9,1,1
1492,10,1,1
1496,4,1,1
1496,7,1,1
1500,52,1,1
1500,4,1,1
1505,0,1,1
1505,8,1,1
1509,0,1,1
1509,17,1,1
1513,4,1,1
1513,4,1,1
1517,4,1,1
1521,18,1,1
1521,8,1,1
1525,41,1,1
1525,3,1,1
1529,13,1,1
1529,7,1,1
1533,12,1,1
1533,2,1,1
1537,0,1,1
1537,29,1,1
1541,0,1,1
1546,6,1,1
1546,0,1,1
1550,5,1,1
1550,14,1,1
1554,17,1,1
1554,3,1,1
1557,6,1,1
1557,30,1,1
1562,12,1,1
1562,3,1,1
1567,6,1,1
1570,19,1,1
1571,8,1,1
1574,9,1,1
1574,11,1,1
1578,3,1,1
1578,22,1,1
1582,0,1,1
1582,0,1,1
1586,4,1,1
1586,18,1,1
1591,12,1,1
1591,0,1,1
1594,0,1,1
1599,6,1,1
1599,17,1,1
1603,20,1,1
1603,4,1,1
1607,1,1,1
1607,29,1,1
1611,12,1,1
1611,7,1,1
1615,8,1,1
1615,12,1,1
1619,8,1,1
1623,4,1,1
1623,6,1,1
1627,35,1,1
1627,21,1,1
1631,7,1,1
1632,8,1,1
1635,6,1,1
1636,18,1,1
1640,4,1,1
1640,6,1,1
1644,6,1,1
1648,4,1,1
1648,27,1,1
1652,7,1,1
1652,13,1,1
1656,5,1,1
1656,18,1,1
1661,11,1,1
1661,2,1,1
1665,4,1,1
1665,9,1,1
1669,17,1,1
1672,1,1,1
1672,5,1,1
1677,6,1,1
1677,23,1,1
1681,19,1,1
1681,0,1,1
1685,5,1,1
1685,11,1,1
1689,14,1,1
1689,11,1,1
1693,7,1,1
1693,1,1,1
1697,16,1,1
1702,2,1,1
1702,8,1,1
1705,29,1,1
1706,33,1,1
1710,6,1,1
1710,5,1,1
1714,10,1,1
1714,8,1,1
1718,11,1,1
1718,6,1,1
1722,4,1,1
1726,0,1,1
1726,31,1,1
1730,43,1,1
1730,10,1,1
1734,0,1,1
1734,33,1,1
1738,13,1,1
1738,0,1,1
1742,15,1,1
1746,30,1,1
1746,0,1,1
1750,0,1,1
1750,0,1,1
1755,33,1,1
1755,15,1,1
1759,5,1,1
1759,2,1,1
1763,9,1,1
1763,30,1,1
1767,3,1,1
1767,0,1,1
1771,2,1,1
1776,5,1,1
1776,21,1,1
1779,33,1,1
1779,1,1,1
1784,8,1,1
1784,32,1,1
1788,6,1,1
1788,1,1,1
1792,5,1,1
1792,1,1,1
1796,22,1,1
1799,12,1,1
1800,9,1,1
1804,0,1,1
1804,37,1,1
1808,19,1,1
1808,4,1,1
1812,8,1,1
1812,4,1,1
1816,12,1,1
1816,2,1,1
1820,8,1,1
1820,7,1,1
1824,33,1,1
1828,9,1,1
1828,6,1,1
1832,48,1,1
1832,0,1,1
1836,18,1,1
1836,8,1,1
1841,0,1,1
1841,0,1,1
1845,34,1,1
1845,3,1,1
1849,6,1,1
1853,2,1,1
1853,4,1,1
1857,23,1,1
1857,11,1,1
1861,2,1,1
1861,4,1,1
1865,34,1,1
1865,1,1,1
1869,8,1,1
1869,3,1,1
1874,11,1,1
1878,7,1,1
1878,5,1,1
1882,4,1,1
1882,6,1,1
1886,52,1,1
1886,3,1,1
1890,8,1,1
1890,3,1,1
1894,2,1,1
1894,31,1,1
1898,5,1,1
1899,3,1,1
1902,6,1,1
1906,5,1,1
1907,11,1,1
1911,26,1,1
1911,5,1,1
1915,16,1,1
1915,20,1,1
1919,7,1,1
1919,0,1,1
1923,1,1,1
1923,20,1,1
1927,12,1,1
1931,11,1,1
1931,11,1,1
1935,45,1,1
1935,3,1,1
1939,16,1,1
1939,0,1,1
1943,0,1,1
1943,11,1,1
1947,8,1,1
1947,4,1,1
1951,0,1,1
1955,36,1,1
1956,5,1,1
1959,8,1,1
1959,5,1,1
1964,0,1,1
1964,15,1,1
1967,34,1,1
1968,10,1,1
1971,10,1,1
1971,9,1,1
1976,8,1,1
1980,11,1,1
1980,6,1,1
1984,40,1,1
1984,7,1,1
1988,7,1,1
1988,5,1,1
1992,9,1,1
1992,19,1,1
1996,2,1,1
1996,1,1,1
2000,6,1,1
2000,10,1,1
2004,9,1,1
2008,7,1,1
2009,0,1,1
2012,51,1,1
2012,21,1,1
2017,10,1,1
2017,0,1,1
2021,3,1,1
2021,33,1,1
2025,2,1,1
2025,2,1,1
2029,4,1,1
2033,0,1,1
2033,19,1,1
2037,23,1,1
2037,4,1,1
2041,7,1,1
2041,34,1,1
2045,4,1,1
2045,9,1,1
2049,0,1,1
2049,5,1,1
2053,18,1,1
2057,2,1,1
2057,7,1,1
2062,0,1,1
2062,17,1,1
2066,25,1,1
2066,2,1,1
2070,0,1,1
2070,3,1,1
2074,14,1,1
2074,9,1,1
2079,18,1,1
2079,0,1,1
2083,33,1,1
2087,0,1,1
2087,9,1,1
2091,42,1,1
2091,3,1,1
2095,15,1,1
2095,6,1,1
2099,6,1,1
2100,3,1,1
2103,30,1,1
2103,2,1,1
2107,3,1,1
2111,0,1,1
2111,5,1,1
2116,18,1,1
2116,1,1,1
2120,14,1,1
2120,2,1,1
2124,28,1,1
2124,9,1,1
2128,7,1,1
2128,0,1,1
2132,17,1,1
2136,16,1,1
2136,0,1,1
2140,4,1,1
2140,7,1,1
2144,32,1,1
2144,0,1,1
2148,6,1,1
2148,0,1,1
2152,0,1,1
2152,15,1,1
2155,4,1,1
2155,9,1,1
2159,7,1,1
2164,25,1,1
2164,0,1,1
2168,34,1,1
2168,3,1,1
2173,5,1,1
2173,14,1,1
2176,2,1,1
2177,5,1,1
2181,4,1,1
2181,27,1,1
2184,8,1,1
2188,1,1,1
2188,6,1,1
2193,10,1,1
2193,16,1,1
2197,2,1,1
2197,0,1,1
2202,2,1,1
2202,28,1,1
2206,8,1,1
2206,9,1,1
2210,0,1,1
2210,4,1,1
2214,23,1,1
2218,9,1,1
2218,11,1,1
2222,32,1,1
2222,31,1,1
2226,0,1,1
2226,2,1,1
2230,5,1,1
2230,0,1,1
2234,14,1,1
2234,4,1,1
2238,4,1,1
2243,3,1,1
2243,31,1,1
2247,41,1,1
2247,14,1,1
2251,5,1,1
2251,24,1,1
2255,11,1,1
2255,4,1,1
2259,7,1,1
2259,0,1,1
2263,12,1,1
2267,3,1,1
2267,5,1,1
2270,21,1,1
2270,27,1,1
2276,7,1,1
2276,0,1,1
2279,18,1,1
2279,21,1,1
2282,9,1,1
2282,3,1,1
2287,6,1,1
2291,8,1,1
2292,26,1,1
2296,6,1,1
2296,6,1,1
2300,56,1,1
2300,25,1,1
2303,11,1,1
2303,3,1,1
2308,2,1,1
2308,5,1,1
2312,17,1,1
2316,4,1,1
2316,3,1,1
2320,3,1,1
2320,24,1,1
2325,22,1,1
2325,0,1,1
2328,11,1,1
2329,12,1,1
2332,11,1,1
2332,6,1,1
2336,0,1,1
2336,6,1,1
2341,13,1,1
2345,8,1,1
2345,9,1,1
2348,47,1,1
2348,43,1,1
2352,7,1,1
2352,1,1,1
2356,10,1,1
2356,9,1,1
2361,7,1,1
2361,5,1,1
2365,3,1,1
2369,0,1,1
2369,19,1,1
2373,37,1,1
2373,5,1,1
2377,0,1,1
2377,0,1,1
2381,15,1,1
2381,6,1,1
2386,0,1,1
2386,2,1,1
2390,20,1,1
2394,8,1,1
2394,7,1,1
2398,4,1,1
2398,4,1,1
2402,34,1,1
2402,3,1,1
2406,6,1,1
2406,0,1,1
2410,7,1,1
2410,13,1,1
2415,3,1,1
2415,8,1,1
2418,10,1,1
2422,24,1,1
2422,2,1,1
2427,33,1,1
2427,0,1,1
2431,26,1,1
2431,0,1,1
2434,8,1,1
2435,0,1,1
2439,8,1,1
2439,21,1,1
2443,6,1,1
2446,2,1,1
2447,7,1,1
2450,5,1,1
2451,11,1,1
2455,3,1,1
2455,0,1,1
2459,11,1,1
2459,22,1,1
2463,6,1,1
2463,0,1,1
2467,1,1,1
2467,3,1,1
2471,10,1,1
2476,3,1,1
2476,1,1,1
2480,45,1,1
2480,22,1,1
2484,10,1,1
2484,6,1,1
2488,0,1,1
2488,28,1,1
2492,3,1,1
2492,0,1,1
2495,13,1,1
2500,0,1,1
2500,13,1,1
2504,26,1,1
2504,12,1,1
2508,0,1,1
2508,15,1,1
2512,0,1,1
2512,0,1,1
2516,5,1,1
2516,29,1,1
2520,2,1,1
2525,0,1,1
2525,2,1,1
2529,40,1,1
2529,13,1,1
2533,5,1,1
2533,2,1,1
2537,1,1,1
2537,32,1,1
2541,8,1,1
2541,5,1,1
2545,0,1,1
2549,9,1,1
2549,21,1,1
2553,5,1,1
2553,1,1,1
2557,5,1,1
2558,0,1,1
2562,12,1,1
2562,2,1,1
2565,8,1,1
2565,5,1,1
2569,40,1,1
2569,0,1,1
2574,5,1,1
2578,10,1,1
2578,1,1,1
2582,44,1,1
2582,5,1,1
2586,5,1,1
2586,0,1,1
2590,37,1,1
2590,5,1,1
2594,1,1,1
2594,2,1,1
2598,3,1,1
2602,14,1,1
2603,3,1,1
2606,0,1,1
2606,2,1,1
2611,26,1,1
2611,5,1,1
2614,14,1,1
2614,0,1,1
2619,0,1,1
2619,17,1,1
2622,0,1,1
2623,6,1,1
2627,4,1,1
2631,19,1,1
2631,4,1,1
2635,48,1,1
2635,2,1,1
2639,2,1,1
2639,15,1,1
2643,8,1,1
2643,9,1,1
2647,12,1,1
2647,36,1,1
2651,0,1,1
2655,0,1,1
2655,6,1,1
2659,32,1,1
2660,13,1,1
2663,4,1,1
2663,0,1,1
2668,0,1,1
2668,34,1,1
2672,8,1,1
2672,4,1,1
2676,4,1,1
2680,2,1,1
2680,12,1,1
2685,5,1,1
2685,4,1,1
2689,34,1,1
2689,32,1,1
2692,5,1,1
2693,2,1,1
2696,0,1,1
2697,3,1,1
2701,12,1,1
2701,5,1,1
2705,13,1,1
2709,4,1,1
2709,31,1,1
2713,25,1,1
2713,4,1,1
2717,18,1,1
2717,34,1,1
2721,12,1,1
2721,0,1,1
2725,7,1,1
2725,8,1,1
2729,10,1,1
2733,6,1,1
2733,9,1,1
2737,61,1,1
2738,16,1,1
2742,13,1,1
2742,7,1,1
2746,0,1,1
2746,34,1,1
2750,5,1,1
2750,0,1,1
2754,3,1,1
2758,7,1,1
2758,14,1,1
2762,49,1,1
2762,6,1,1
2766,6,1,1
2766,38,1,1
2770,8,1,1
2770,8,1,1
2775,3,1,1
2775,0,1,1
2779,16,1,1
2783,4,1,1
2783,4,1,1
2787,1,1,1
2787,16,1,1
2791,12,1,1
2791,5,1,1
2795,8,1,1
2795,0,1,1
2799,17,1,1
2799,0,1,1
2803,6,1,1
2803,6,1,1
2807,16,1,1
2811,4,1,1
2811,3,1,1
2815,47,1,1
2815,0,1,1
2819,18,1,1
2819,3,1,1
2823,7,1,1
2823,0,1,1
2827,15,1,1
2828,12,1,1
2832,6,1,1
2836,2,1,1
2836,7,1,1
2841,41,1,1
2841,4,1,1
2844,54,1,1
2845,16,1,1
2849,22,1,1
2849,2,1,1
2853,0,1,1
2853,8,1,1
2857,4,1,1
2860,7,1,1
2860,4,1,1
2864,4,1,1
2864,7,1,1
2868,44,1,1
2868,9,1,1
2873,9,1,1
2873,2,1,1
2877,8,1,1
2877,29,1,1
2881,8,1,1
2882,0,1,1
2885,5,1,1
2890,4,1,1
2890,18,1,1
2894,38,1,1
2894,2,1,1
2897,0,1,1
2897,29,1,1
2901,6,1,1
2901,5,1,1
2905,9,1,1
2905,9,1,1
2909,13,1,1
2913,0,1,1
2913,10,1,1
2918,0,1,1
2918,27,1,1
2922,7,1,1
2922,2,1,1
2926,3,1,1
2926,4,1,1
2930,14,1,1
2930,11,1,1
2934,0,1,1
2934,0,1,1
2939,25,1,1
2942,3,1,1
2943,2,1,1
2946,59,1,1
2947,22,1,1
2950,39,1,1
2951,15,1,1
2954,29,1,1
2954,34,1,1
2959,16,1,1
2963,13,1,1
2963,4,1,1
2967,28,1,1
2967,9,1,1
2971,23,1,1
2971,0,1,1
2975,0,1,1
2975,8,1,1
2979,4,1,1
2979,2,1,1
2984,0,1,1
2984,1,1,1
2988,10,1,1
2992,5,1,1
2992,0,1,1
2996,46,1,1
2996,21,1,1
3000,3,1,1
3000,6,1,1
3004,8,1,1
3004,1,1,1
3008,13,1,1
3008,1,1,1
3012,0,1,1
3016,0,1,1
3016,36,1,1
3021,13,1,1
3021,5,1,1
3025,1,1,1
3025,2,1,1
3029,15,1,1
3029,11,1,1
3032,11,1,1
3032,0,1,1
3037,10,1,1
3041,6,1,1
3041,1,1,1
3044,0,1,1
3045,32,1,1
3049,9,1,1
3049,3,1,1
3053,5,1,1
3053,0,1,1
3057,17,1,1
3057,6,1,1
3061,5,1,1
3061,4,1,1
3065,4,1,1
3069,8,1,1
3070,2,1,1
3074,31,1,1
3074,1,1,1
3078,34,1,1
3078,6,1,1
3082,7,1,1
3082,4,1,1
3086,2,1,1
3086,17,1,1
3090,8,1,1
3094,14,1,1
3094,0,1,1
3098,35,1,1
3098,13,1,1
3102,3,1,1
3103,0,1,1
3106,2,1,1
3106,10,1,1
3110,8,1,1
3111,4,1,1
3115,6,1,1
3119,35,1,1
3119,6,1,1
3123,1,1,1
3123,4,1,1
3127,58,1,1
3127,12,1,1
3131,12,1,1
3131,5,1,1
3135,6,1,1
3136,18,1,1
3139,17,1,1
3139,2,1,1
3143,3,1,1
3147,36,1,1
3147,0,1,1
3152,30,1,1
3152,5,1,1
3156,54,1,1
3156,13,1,1
3160,8,1,1
3160,5,1,1
3164,2,1,1
3164,19,1,1
3168,8,1,1
3172,5,1,1
3172,7,1,1
3176,28,1,1
3176,2,1,1
3180,8,1,1
3180,8,1,1
3184,0,1,1
3184,38,1,1
3188,14,1,1
3188,0,1,1
3192,5,1,1
3195,9,1,1
3197,15,1,1
3200,7,1,1
3200,0,1,1
3204,13,1,1
3204,20,1,1
3208,7,1,1
3208,0,1,1
3212,2,1,1
3212,9,1,1
3217,5,1,1
3217,1,1,1
3220,7,1,1
3225,6,1,1
3225,21,1,1
3229,35,1,1
3229,4,1,1
3233,7,1,1
3233,2,1,1
3237,15,1,1
3238,3,1,1
3242,2,1,1
3242,6,1,1
3246,25,1,1
3250,9,1,1
3250,15,1,1
3254,0,1,1
3254,3,1,1
3258,20,1,1
3258,8,1,1
3262,0,1,1
3262,1,1,1
3266,25,1,1
3266,9,1,1
3270,4,1,1
3270,0,1,1
3274,0,1,1
3277,20,1,1
3279,3,1,1
3282,41,1,1
3283,5,1,1
3287,27,1,1
3287,5,1,1
3291,12,1,1
3291,4,1,1
3295,13,1,1
3295,6,1,1
3298,0,1,1
3303,0,1,1
3303,5,1,1
3307,31,1,1
3307,4,1,1
3311,6,1,1
3312,3,1,1
3315,11,1,1
3315,11,1,1
3319,5,1,1
3319,0,1,1
3323,2,1,1
3327,29,1,1
3328,6,1,1
3332,2,1,1
3332,9,1,1
3335,16,1,1
3335,8,1,1
3340,11,1,1
3340,0,1,1
3344,7,1,1
3344,29,1,1
3348,10,1,1
3348,6,1,1
3352,0,1,1
3356,2,1,1
3356,10,1,1
3360,24,1,1
3361,1,1,1
3364,0,1,1
3364,25,1,1
3368,9,1,1
3368,3,1,1
3372,0,1,1
3372,4,1,1
3376,12,1,1
3380,1,1,1
3380,6,1,1
3384,17,1,1
3385,25,1,1
3388,10,1,1
3388,2,1,1
3392,0,1,1
3393,29,1,1
3397,9,1,1
3397,0,1,1
3401,2,1,1
3405,2,1,1
3405,23,1,1
3409,8,1,1
3409,3,1,1
3413,16,1,1
3413,27,1,1
3417,3,1,1
3417,0,1,1
3421,6,1,1
3421,3,1,1
3425,19,1,1
3425,9,1,1
3429,0,1,1
3433,1,1,1
3434,2,1,1
3438,47,1,1
3438,10,1,1
3442,2,1,1
3442,0,1,1
3446,20,1,1
3446,5,1,1
3450,3,1,1
3450,1,1,1
3454,3,1,1
3458,9,1,1
3458,8,1,1
3462,7,1,1
3462,4,1,1
3466,17,1,1
3466,10,1,1
3470,2,1,1
3470,7,1,1
3475,2,1,1
3475,16,1,1
3479,4,1,1
3479,1,1,1
3483,0,1,1
3487,9,1,1
3488,7,1,1
3492,34,1,1
3492,4,1,1
3496,0,1,1
3496,25,1,1
3500,4,1,1
3500,3,1,1
3504,7,1,1
3504,4,1,1
3508,9,1,1
3512,8,1,1
3512,5,1,1
3516,6,1,1
3516,3,1,1
3520,19,1,1
3521,5,1,1
3524,8,1,1
3524,4,1,1
3529,26,1,1
3529,5,1,1
3532,7,1,1
3533,6,1,1
3537,5,1,1
3541,15,1,1
3541,1,1,1
3545,17,1,1
3545,16,1,1
3549,23,1,1
3549,0,1,1
3553,1,1,1
3553,7,1,1
3557,10,1,1
3557,5,1,1
3562,3,1,1
3565,2,1,1
3565,10,1,1
3569,21,1,1
3569,6,1,1
3574,12,1,1
3574,5,1,1
3577,22,1,1
3577,1,1,1
3581,3,1,1
3581,1,1,1
3586,5,1,1
3589,20,1,1
3590,4,1,1
3594,2,1,1
3594,0,1,1
3598,20,1,1
3598,0,1,1
3602,1,1,1
3602,3,1,1
3606,10,1,1
3606,19,1,1
3610,8,1,1
3610,4,1,1
3614,7,1,1
3618,2,1,1
3618,13,1,1
3622,32,1,1
3622,0,1,1
3626,2,1,1
3626,19,1,1
3630,6,1,1
3630,9,1,1
3635,2,1,1
3635,0,1,1
3639,12,1,1
3643,6,1,1
3643,6,1,1
3647,0,1,1
3647,28,1,1
3651,14,1,1
3651,0,1,1
3655,5,1,1
3655,1,1,1
3660,13,1,1
3660,7,1,1
3664,6,1,1
3664,0,1,1
3668,35,1,1
3672,8,1,1
3672,0,1,1
3676,27,1,1
3676,1,1,1
3680,11,1,1
3680,2,1,1
3684,4,1,1
3684,1,1,1
3688,29,1,1
3688,7,1,1
3692,0,1,1
3696,1,1,1
3696,5,1,1
3700,15,1,1
3700,8,1,1
3704,0,1,1
3704,0,1,1
3709,16,1,1
3709,4,1,1
3713,4,1,1
3713,5,1,1
3717,2,1,1
3721,20,1,1
3721,6,1,1
3725,7,1,1
3725,4,1,1
3729,40,1,1
3729,8,1,1
3733,15,1,1
3733,3,1,1
3737,3,1,1
3737,22,1,1
3741,0,1,1
3742,1,1,1
3746,3,1,1
3750,2,1,1
3750,8,1,1
3754,4,1,1
3754,10,1,1
3758,9,1,1
3758,28,1,1
3762,11,1,1
3762,6,1,1
3766,1,1,1
3766,2,1,1
3770,15,1,1
3770,0,1,1
3774,3,1,1
3778,0,1,1
3778,30,1,1
3782,36,1,1
3783,0,1,1
3786,7,1,1
3787,5,1,1
3790,18,1,1
3790,0,1,1
3795,2,1,1
3795,0,1,1
3799,32,1,1
3803,2,1,1
3803,5,1,1
3807,28,1,1
3807,3,1,1
3811,11,1,1
3811,9,1,1
3815,0,1,1
3815,5,1,1
3819,29,1,1
3819,12,1,1
3823,4,1,1
3827,2,1,1
3827,4,1,1
3832,13,1,1
3832,10,1,1
3836,0,1,1
3836,8,1,1
3840,16,1,1
3840,0,1,1
3844,3,1,1
3844,3,1,1
3847,4,1,1
3851,12,1,1
3851,5,1,1
3855,10,1,1
3855,12,1,1
3859,53,1,1
3859,12,1,1
3863,4,1,1
3863,2,1,1
3868,22,1,1
3868,1,1,1
3873,3,1,1
3873,4,1,1
3876,7,1,1
3880,14,1,1
3880,5,1,1
3885,35,1,1
3885,5,1,1
3889,19,1,1
3889,8,1,1
3893,5,1,1
3893,2,1,1
3897,2,1,1
3897,12,1,1
3901,8,1,1
3905,4,1,1
3905,0,1,1
3909,31,1,1
3909,4,1,1
3913,16,1,1
3913,6,1,1
3917,8,1,1
3917,5,1,1
3921,5,1,1
3921,8,1,1
3925,4,1,1
3926,6,1,1
3929,10,1,1
3934,4,1,1
3934,0,1,1
3938,44,1,1
3938,14,1,1
3942,6,1,1
3942,2,1,1
3946,6,1,1
3946,12,1,1
3950,8,1,1
3950,0,1,1
3954,9,1,1
3959,0,1,1
3959,30,1,1
3963,17,1,1
3963,11,1,1
3967,8,1,1
3967,28,1,1
3971,12,1,1
3971,0,1,1
3974,6,1,1
3975,0,1,1
3978,9,1,1
3982,8,1,1
3982,9,1,1
3987,0,1,1
3987,8,1,1
3991,26,1,1
3991,9,1,1
3995,3,1,1
3995,0,1,1
3999,23,1,1
3999,5,1,1
4003,5,1,1
4003,3,1,1
4007,4,1,1
4011,11,1,1
4011,4,1,1
4015,25,1,1
4015,7,1,1
4019,26,1,1
4020,6,1,1
4023,2,1,1
4023,8,1,1
4027,0,1,1
4027,9,1,1
4032,10,1,1
4036,5,1,1
4036,5,1,1
4040,22,1,1
4040,6,1,1
4044,9,1,1
4044,0,1,1
4048,7,1,1
4048,20,1,1
4052,6,1,1
4052,8,1,1
4056,6,1,1
4056,3,1,1
4060,12,1,1
4064,2,1,1
4065,5,1,1
4069,26,1,1
4069,18,1,1
4073,2,1,1
4073,1,1,1
4077,3,1,1
4077,3,1,1
4081,13,1,1
4081,5,1,1
4085,1,1,1
4089,3,1,1
4089,29,1,1
4093,8,1,1
4093,3,1,1
4097,8,1,1
4097,3,1,1
4101,12,1,1
4101,1,1,1
4105,6,1,1
4105,7,1,1
4109,14,1,1
4109,4,1,1
4113,3,1,1
4118,9,1,1
4118,1,1,1
4122,29,1,1
4122,4,1,1
4126,6,1,1
4126,0,1,1
4130,3,1,1
4130,12,1,1
4134,10,1,1
4134,1,1,1
4138,0,1,1
4142,23,1,1
4142,7,1,1
4146,5,1,1
4146,5,1,1
4150,13,1,1
4151,10,1,1
4155,4,1,1
4155,4,1,1
4159,4,1,1
4159,27,1,1
4163,1,1,1
4163,6,1,1
4167,6,1,1
4171,5,1,1
4171,11,1,1
4175,35,1,1
4175,1,1,1
4180,3,1,1
4180,23,1,1
4184,6,1,1
4184,3,1,1
4188,2,1,1
4188,3,1,1
4192,12,1,1
4196,2,1,1
4196,3,1,1
4200,4,1,1
4200,24,1,1
4204,5,1,1
4204,1,1,1
4208,3,1,1
4208,0,1,1
4212,18,1,1
4213,3,1,1
4216,6,1,1
4216,4,1,1
4220,4,1,1
4224,8,1,1
4225,0,1,1
4228,27,1,1
4228,0,1,1
4232,26,1,1
4232,0,1,1
4236,0,1,1
4236,0,1,1
4241,0,1,1
4241,15,1,1
4245,1,1,1
4249,7,1,1
4249,12,1,1
4253,39,1,1
4253,6,1,1
4257,18,1,1
4257,7,1,1
4261,9,1,1
4261,5,1,1
4266,3,1,1
4266,0,1,1
4270,6,1,1
4270,12,1,1
4273,9,1,1
4277,4,1,1
4277,3,1,1
4282,34,1,1
4282,14,1,1
4286,3,1,1
4286,1,1,1
4290,3,1,1
4290,11,1,1
4294,10,1,1
4295,5,1,1
4298,0,1,1
4302,2,1,1
4302,17,1,1
4306,22,1,1
4306,5,1,1
4311,9,1,1
4311,34,1,1
4314,13,1,1
4314,8,1,1
4319,0,1,1
4319,6,1,1
4322,7,1,1
4327,9,1,1
4328,0,1,1
4331,0,1,1
4331,18,1,1
4335,19,1,1
4335,0,1,1
4339,7,1,1
4339,1,1,1
4343,12,1,1
4343,4,1,1
4347,6,1,1
4347,5,1,1
4351,18,1,1
4355,9,1,1
4355,5,1,1
4360,30,1,1
4360,0,1,1
4363,24,1,1
4364,9,1,1
4368,15,1,1
4368,0,1,1
4372,22,1,1
4372,7,1,1
4376,4,1,1
4380,3,1,1
4380,5,1,1
4384,12,1,1
4385,5,1,1
4388,9,1,1
4389,0,1,1
4393,22,1,1
4393,3,1,1
4397,8,1,1
4397,0,1,1
4401,1,1,1
4405,18,1,1
4405,10,1,1
4409,7,1,1
4409,1,1,1
4413,48,1,1
4413,3,1,1
4417,3,1,1
4417,3,1,1
4421,7,1,1
4421,18,1,1
4425,4,1,1
4425,6,1,1
4429,4,1,1
4433,0,1,1
4434,11,1,1
4438,16,1,1
4438,0,1,1
4442,4,1,1
4442,17,1,1
4446,5,1,1
4446,4,1,1
4450,6,1,1
4450,3,1,1
4454,11,1,1
4458,0,1,1
4458,10,1,1
4462,6,1,1
4462,17,1,1
4466,0,1,1
4466,0,1,1
4470,3,1,1
4471,3,1,1
4474,10,1,1
4474,3,1,1
4478,3,1,1
4478,5,1,1
4482,29,1,1
4486,2,1,1
4486,0,1,1
4490,30,1,1
4490,6,1,1
4494,11,1,1
4495,2,1,1
4499,7,1,1
4499,8,1,1
4503,35,1,1
4503,4,1,1
4507,6,1,1
4511,0,1,1
4511,0,1,1
4515,16,1,1
4515,2,1,1
4519,12,1,1
4519,2,1,1
4523,32,1,1
4523,5,1,1
4527,4,1,1
4527,2,1,1
4531,5,1,1
4535,13,1,1
4535,10,1,1
4539,1,1,1
4539,1,1,1
4544,40,1,1
4544,6,1,1
4548,5,1,1
4548,4,1,1
4552,3,1,1
4552,11,1,1
4556,3,1,1
4556,3,1,1
4560,4,1,1
4564,20,1,1
4564,7,1,1
4568,14,1,1
4568,6,1,1
4572,5,1,1
4572,12,1,1
4576,11,1,1
4576,0,1,1
4580,1,1,1
4580,20,1,1
4584,3,1,1
4589,0,1,1
4589,8,1,1
4592,0,1,1
4593,8,1,1
4598,13,1,1
4598,5,1,1
4602,2,1,1
4602,31,1,1
4606,11,1,1
4606,7,1,1
4610,0,1,1
4610,0,1,1
4613,7,1,1
4617,3,1,1
4618,6,1,1
4622,29,1,1
4622,26,1,1
4626,6,1,1
4626,9,1,1
4630,0,1,1
4630,0,1,1
4634,17,1,1
4634,10,1,1
4639,0,1,1
4642,1,1,1
4643,26,1,1
4647,11,1,1
4647,3,1,1
4651,9,1,1
4651,3,1,1
4654,12,1,1
4654,4,1,1
4658,7,1,1
4659,3,1,1
4663,26,1,1
4663,2,1,1
4667,4,1,1
4671,0,1,1
4671,8,1,1
4675,38,1,1
4675,2,1,1
4679,4,1,1
4679,1,1,1
4683,0,1,1
4683,10,1,1
4687,14,1,1
4688,0,1,1
4691,0,1,1
4696,13,1,1
4696,12,1,1
4700,39,1,1
4700,5,1,1
4704,18,1,1
4704,2,1,1
4708,8,1,1
4708,0,1,1
4712,7,1,1
4712,10,1,1
4716,2,1,1
4720,0,1,1
4720,0,1,1
4724,29,1,1
4724,5,1,1
4728,13,1,1
4729,1,1,1
4733,5,1,1
4733,13,1,1
4737,1,1,1
4737,3,1,1
4741,9,1,1
4745,30,1,1
4745,9,1,1
4749,7,1,1
4749,1,1,1
4753,28,1,1
4753,8,1,1
4757,7,1,1
4757,3,1,1
4761,8,1,1
4761,18,1,1
4765,5,1,1
4765,0,1,1
4769,3,1,1
4773,0,1,1
4773,22,1,1
4778,3,1,1
4778,5,1,1
4781,14,1,1
4781,15,1,1
4786,3,1,1
4786,0,1,1
4790,12,1,1
4790,8,1,1
4794,12,1,1
4798,3,1,1
4798,1,1,1
4802,3,1,1
4802,20,1,1
4806,17,1,1
4806,1,1,1
4810,3,1,1
4810,7,1,1
4814,14,1,1
4814,2,1,1
4818,1,1,1
4818,0,1,1
4822,24,1,1
4826,7,1,1
4826,7,1,1
4830,35,1,1
4830,0,1,1
4834,13,1,1
4835,4,1,1
4839,0,1,1
4839,2,1,1
4843,24,1,1
4843,5,1,1
4847,3,1,1
4851,5,1,1
4851,0,1,1
4855,19,1,1
4855,7,1,1
4859,4,1,1
4859,0,1,1
4864,8,1,1
4864,14,1,1
4867,0,1,1
4867,3,1,1
4871,8,1,1
4872,29,1,1
4876,7,1,1
4880,11,1,1
4880,0,1,1
4884,38,1,1
4884,5,1,1
4888,3,1,1
4888,2,1,1
4892,6,1,1
4892,30,1,1
4897,12,1,1
4897,0,1,1
4900,0,1,1
4905,0,1,1
4905,10,1,1
4909,21,1,1
4909,6,1,1
4913,10,1,1
4913,11,1,1
4917,0,1,1
4917,1,1,1
4921,5,1,1
4921,27,1,1
4925,4,1,1
4929,5,1,1
4929,4,1,1
4933,2,1,1
4933,16,1,1
4937,12,1,1
4937,5,1,1
4941,9,1,1
4942,30,1,1
4945,2,1,1
4946,2,1,1
4950,3,1,1
4950,2,1,1
4954,13,1,1
4958,0,1,1
4958,0,1,1
4961,32,1,1
4962,31,1,1
4966,12,1,1
4966,0,1,1
4971,8,1,1
4971,4,1,1
4974,14,1,1
4974,3,1,1
4978,4,1,1
4982,0,1,1
4982,32,1,1
4986,34,1,1
4986,6,1,1
4991,44,1,1
4991,26,1,1
4995,7,1,1
4995,8,1,1
4999,5,1,1
4999,7,1,1
5003,16,1,1
0,0,1,2
1,0,1,2
1,10,1,2
1,30,1,2
1,2,1,2
1,2,1,2
1,0,1,2
1,1,1,2
1,15,1,2
1,6,1,2
1,14,1,2
1,2,1,2
1,30,1,2
1,10,1,2
1,12,1,2
1,7,1,2
1,24,1,2
1,8,1,2
1,6,1,2
1,4,1,2
3,1,1,2
3,18,1,2
3,5,1,2
3,9,1,2
3,6,1,2
3,0,1,2
3,33,1,2
3,1,1,2
3,11,1,2
3,2,1,2
4,16,1,2
4,0,1,2
4,6,1,2
4,6,1,2
4,3,1,2
4,7,1,2
4,4,1,2
4,3,1,2
4,8,1,2
4,17,1,2
4,5,1,2
4,1,1,2
4,2,1,2
4,1,1,2
4,25,1,2
4,4,1,2
4,2,1,2
4,4,1,2
4,2,1,2
4,14,1,2
4,34,1,2
5,2,1,2
5,1,1,2
5,24,1,2
5,8,1,2
5,0,1,2
5,7,1,2
5,2,1,2
5,9,1,2
5,0,1,2
5,0,1,2
5,3,1,2
6,0,1,2
6,15,1,2
6,6,1,2
6,12,1,2
6,3,1,2
6,18,1,2
6,4,1,2
6,11,1,2
6,6,1,2
6,23,1,2
6,4,1,2
7,2,1,2
7,25,1,2
7,3,1,2
7,10,1,2
7,3,1,2
7,6,1,2
7,0,1,2
7,27,1,2
7,3,1,2
7,10,1,2
8,8,1,2
8,0,1,2
8,39,1,2
8,6,1,2
8,13,1,2
8,0,1,2
8,18,1,2
8,8,1,2
8,0,1,2
8,1,1,2
8,3,1,2
8,9,1,2
8,3,1,2
8,3,1,2
8,1,1,2
8,17,1,2
8,7,1,2
10,7,1,2
10,4,1,2
10,1,1,2
10,27,1,2
10,5,1,2
10,1,1,2
10,4,1,2
10,1,1,2
10,12,1,2
10,28,1,2
11,0,1,2
11,5,1,2
11,24,1,2
11,6,1,2
11,3,1,2
11,8,1,2
11,11,1,2
11,9,1,2
11,0,1,2
11,0,1,2
11,0,1,2
12,21,1,2
12,15,1,2
12,2,1,2
12,6,1,2
12,3,1,2
12,14,1,2
12,1,1,2
13,5,1,2
13,0,1,2
13,24,1,2
13,5,1,2
13,7,1,2
13,37,1,2
13,0,1,2
13,12,1,2
13,7,1,2
13,6,1,2
13,4,1,2
14,20,1,2
14,6,1,2
14,0,1,2
14,0,1,2
14,5,1,2
14,19,1,2
14,7,1,2
14,9,1,2
14,6,1,2
14,1,1,2
14,9,1,2
14,4,1,2
14,9,1,2
14,12,1,2
15,29,1,2
15,0,1,2
15,0,1,2
15,3,1,2
15,33,1,2
15,8,1,2
15,2,1,2
15,3,1,2
15,4,1,2
15,16,1,2
16,11,1,2
16,0,1,2
16,0,1,2
16,2,1,2
16,14,1,2
16,0,1,2
16,2,1,2
16,13,1,2
16,30,1,2
16,9,1,2
16,6,1,2
16,4,1,2
16,5,1,2
16,11,1,2
16,3,1,2
16,0,1,2
16,6,1,2
17,16,1,2
17,18,1,2
17,0,1,2
17,4,1,2
17,3,1,2
17,12,1,2
17,2,1,2
17,7,1,2
17,5,1,2
17,19,1,2
17,4,1,2
17,11,1,2
17,32,1,2
17,14,1,2
17,4,1,2
17,6,1,2
17,0,1,2
17,1,1,2
18,27,1,2
18,5,1,2
18,9,1,2
18,5,1,2
18,0,1,2
18,15,1,2
18,16,1,2
18,9,1,2
18,0,1,2
18,24,1,2
18,6,1,2
18,8,1,2
18,12,1,2
18,12,1,2
18,7,1,2
18,11,1,2
18,0,1,2
19,2,1,2
19,29,1,2
19,5,1,2
19,3,1,2
19,3,1,2
19,17,1,2
19,0,1,2
19,2,1,2
19,0,1,2
19,5,1,2
19,23,1,2
19,0,1,2
19,27,1,2
19,4,1,2
19,14,1,2
19,6,1,2
19,5,1,2
19,2,1,2
20,4,1,2
20,24,1,2
20,8,1,2
20,5,1,2
20,2,1,2
20,2,1,2
20,11,1,2
20,13,1,2
20,7,1,2
20,6,1,2
20,21,1,2
20,4,1,2
20,5,1,2
20,10,1,2
21,18,1,2
21,0,1,2
21,5,1,2
21,17,1,2
21,30,1,2
21,7,1,2
21,0,1,2
21,3,1,2
21,6,1,2
21,21,1,2
21,1,1,2
21,2,1,2
21,6,1,2
21,4,1,2
21,21,1,2
21,32,1,2
21,0,1,2
21,5,1,2
21,20,1,2
23,12,1,2
23,3,1,2
23,0,1,2
23,4,1,2
23,13,1,2
23,4,1,2
23,2,1,2
23,0,1,2
23,18,1,2
23,7,1,2
23,8,1,2
23,1,1,2
23,0,1,2
23,20,1,2
23,0,1,2
24,5,1,2
24,0,1,2
24,3,1,2
24,10,1,2
24,8,1,2
24,34,1,2
24,0,1,2
24,19,1,2
24,5,1,2
24,16,1,2
24,6,1,2
24,25,1,2
24,18,1,2
24,0,1,2
24,0,1,2
24,1,1,2
24,32,1,2
24,8,1,2
25,10,1,2
25,1,1,2
25,21,1,2
25,8,1,2
25,5,1,2
25,3,1,2
25,2,1,2
25,10,1,2
25,4,1,2
25,1,1,2
25,4,1,2
25,33,1,2
25,5,1,2
25,11,1,2
25,3,1,2
25,0,1,2
26,10,1,2
26,9,1,2
26,6,1,2
26,0,1,2
26,28,1,2
26,4,1,2
26,37,1,2
26,9,1,2
26,3,1,2
26,9,1,2
26,9,1,2
26,4,1,2
26,11,1,2
26,28,1,2
26,6,1,2
26,4,1,2
26,2,1,2
26,0,1,2
27,17,1,2
27,7,1,2
27,3,1,2
27,4,1,2
27,5,1,2
27,12,1,2
27,5,1,2
27,5,1,2
27,0,1,2
27,29,1,2
27,6,1,2
27,12,1,2
27,46,1,2
27,30,1,2
27,7,1,2
27,0,1,2
27,8,1,2
27,13,1,2
28,8,1,2
28,2,1,2
28,3,1,2
28,7,1,2
28,6,1,2
28,19,1,2
28,2,1,2
28,3,1,2
28,0,1,2
28,27,1,2
28,6,1,2
28,5,1,2
28,0,1,2
28,2,1,2
28,12,1,2
28,4,1,2
28,4,1,2
28,1,1,2
29,31,1,2
29,8,1,2
29,1,1,2
29,1,1,2
29,1,1,2
29,22,1,2
29,4,1,2
29,0,1,2
29,3,1,2
29,0,1,2
29,9,1,2
29,6,1,2
29,6,1,2
29,4,1,2
29,1,1,2
30,21,1,2
30,0,1,2
30,0,1,2
30,2,1,2
30,28,1,2
30,7,1,2
30,8,1,2
30,5,1,2
30,4,1,2
31,37,1,2
31,4,1,2
32,5,1,2
32,6,1,2
32,11,1,2
32,6,1,2
32,5,1,2
32,2,1,2
32,5,1,2
32,25,1,2
32,0,1,2
33,6,1,2
33,9,1,2
33,15,1,2
33,7,1,2
33,4,1,2
33,0,1,2
33,7,1,2
33,24,1,2
33,8,1,2
33,0,1,2
34,0,1,2
34,1,1,2
34,19,1,2
34,20,1,2
34,3,1,2
34,6,1,2
34,24,1,2
34,8,1,2
34,6,1,2
34,3,1,2
34,2,1,2
35,20,1,2
35,5,1,2
35,0,1,2
35,0,1,2
35,5,1,2
35,39,1,2
35,11,1,2
36,5,1,2
36,6,1,2
36,17,1,2
36,8,1,2
36,0,1,2
37,0,1,2
37,4,1,2
37,10,1,2
37,3,1,2
37,27,1,2
37,0,1,2
38,19,1,2
38,2,1,2
38,1,1,2
38,3,1,2
38,5,1,2
38,6,1,2
38,4,1,2
39,5,1,2
39,3,1,2
39,4,1,2
40,7,1,2
40,22,1,2
40,1,1,2
40,7,1,2
40,28,1,2
40,4,1,2
40,4,1,2
40,4,1,2
41,1,1,2
41,16,1,2
41,2,1,2
41,1,1,2
41,8,1,2
41,17,1,2
41,13,1,2
41,8,1,2
41,3,1,2
41,2,1,2
41,9,1,2
41,0,1,2
41,7,1,2
42,5,1,2
42,8,1,2
42,11,1,2
42,4,1,2
42,17,1,2
42,11,1,2
42,9,1,2
42,1,1,2
42,6,1,2
42,8,1,2
42,4,1,2
42,9,1,2
42,3,1,2
42,4,1,2
42,1,1,2
42,7,1,2
42,5,1,2
43,38,1,2
43,4,1,2
43,4,1,2
43,29,1,2
43,3,1,2
43,1,1,2
43,12,1,2
43,7,1,2
43,9,1,2
43,4,1,2
43,2,1,2
43,25,1,2
43,28,1,2
44,7,1,2
44,4,1,2
44,1,1,2
44,0,1,2
44,11,1,2
44,4,1,2
44,9,1,2
44,7,1,2
44,19,1,2
44,4,1,2
44,9,1,2
44,29,1,2
45,4,1,2
45,13,1,2
45,0,1,2
45,0,1,2
45,6,1,2
45,24,1,2
45,4,1,2
45,5,1,2
45,3,1,2
45,2,1,2
45,27,1,2
45,5,1,2
45,9,1,2
45,0,1,2
45,2,1,2
46,12,1,2
47,2,1,2
47,3,1,2
47,9,1,2
47,30,1,2
49,5,1,2
50,0,1,2
50,0,1,2
50,4,1,2
50,17,1,2
50,9,1,2
50,1,1,2
50,0,1,2
51,10,1,2
51,6,1,2
51,11,1,2
51,1,1,2
51,0,1,2
51,13,1,2
51,23,1,2
51,4,1,2
52,7,1,2
52,35,1,2
52,3,1,2
52,2,1,2
52,2,1,2
52,4,1,2
52,14,1,2
52,1,1,2
52,5,1,2
53,3,1,2
53,10,1,2
53,12,1,2
53,2,1,2
53,0,1,2
53,4,1,2
53,16,1,2
53,0,1,2
53,2,1,2
53,1,1,2
53,10,1,2
53,6,1,2
53,5,1,2
53,8,1,2
53,3,1,2
53,26,1,2
53,0,1,2
54,0,1,2
54,0,1,2
54,3,1,2
54,13,1,2
55,6,1,2
55,0,1,2
55,0,1,2
55,19,1,2
55,6,1,2
55,7,1,2
55,1,1,2
55,8,1,2
56,21,1,2
56,5,1,2
56,5,1,2
56,0,1,2
56,4,1,2
56,11,1,2
56,6,1,2
56,1,1,2
57,30,1,2
57,25,1,2
57,5,1,2
57,8,1,2
57,4,1,2
57,0,1,2
57,16,1,2
57,0,1,2
57,5,1,2
57,2,1,2
58,28,1,2
58,11,1,2
58,2,1,2
58,6,1,2
58,5,1,2
58,13,1,2
58,2,1,2
58,5,1,2
58,0,1,2
58,28,1,2
59,3,1,2
59,6,1,2
59,1,1,2
59,1,1,2
59,40,1,2
59,6,1,2
59,6,1,2
59,0,1,2
59,9,1,2
59,10,1,2
60,8,1,2
60,3,1,2
60,2,1,2
60,32,1,2
60,8,1,2
60,8,1,2
60,3,1,2
60,12,1,2
60,9,1,2
60,4,1,2
61,5,1,2
61,7,1,2
61,9,1,2
61,9,1,2
61,7,1,2
61,5,1,2
61,9,1,2
61,18,1,2
61,32,1,2
61,0,1,2
62,3,1,2
62,5,1,2
62,13,1,2
62,0,1,2
62,7,1,2
62,4,1,2
62,19,1,2
62,2,1,2
63,4,1,2
63,2,1,2
63,4,1,2
63,45,1,2
63,1,1,2
63,2,1,2
63,1,1,2
63,0,1,2
63,11,1,2
64,6,1,2
64,3,1,2
64,0,1,2
65,26,1,2
65,3,1,2
65,27,1,2
65,6,1,2
65,7,1,2
65,6,1,2
65,5,1,2
65,2,1,2
65,5,1,2
65,7,1,2
65,15,1,2
65,7,1,2
65,0,1,2
65,0,1,2
65,35,1,2
65,14,1,2
66,6,1,2
66,10,1,2
66,30,1,2
66,6,1,2
66,7,1,2
66,0,1,2
66,0,1,2
66,16,1,2
66,1,1,2
66,4,1,2
66,30,1,2
66,33,1,2
66,35,1,2
66,6,1,2
66,4,1,2
66,3,1,2
67,8,1,2
67,2,1,2
67,0,1,2
67,1,1,2
67,13,1,2
67,8,1,2
67,6,1,2
67,6,1,2
67,1,1,2
67,26,1,2
67,6,1,2
67,10,1,2
67,0,1,2
67,14,1,2
67,0,1,2
67,1,1,2
67,3,1,2
67,5,1,2
67,45,1,2
68,8,1,2
68,14,1,2
68,11,1,2
68,36,1,2
68,0,1,2
68,4,1,2
68,0,1,2
68,0,1,2
68,16,1,2
68,0,1,2
68,38,1,2
68,5,1,2
68,27,1,2
68,6,1,2
68,2,1,2
68,0,1,2
68,5,1,2
69,12,1,2
69,6,1,2
69,2,1,2
69,4,1,2
69,22,1,2
69,5,1,2
69,4,1,2
69,4,1,2
69,5,1,2
69,22,1,2
69,2,1,2
69,8,1,2
69,7,1,2
69,0,1,2
69,10,1,2
69,2,1,2
69,6,1,2
69,38,1,2
70,20,1,2
70,0,1,2
70,2,1,2
70,6,1,2
70,0,1,2
70,11,1,2
70,0,1,2
70,2,1,2
70,6,1,2
70,32,1,2
70,6,1,2
70,4,1,2
70,8,1,2
70,0,1,2
70,16,1,2
70,8,1,2
71,2,1,2
71,0,1,2
71,8,1,2
71,13,1,2
71,0,1,2
71,1,1,2
71,8,1,2
71,29,1,2
71,2,1,2
71,4,1,2
71,2,1,2
71,1,1,2
71,12,1,2
71,7,1,2
72,4,1,2
72,2,1,2
72,21,1,2
72,7,1,2
72,5,1,2
72,4,1,2
72,9,1,2
72,19,1,2
72,3,1,2
72,4,1,2
72,8,1,2
72,4,1,2
72,10,1,2
73,3,1,2
73,7,1,2
73,1,1,2
73,29,1,2
73,35,1,2
73,0,1,2
73,15,1,2
73,25,1,2
73,3,1,2
73,7,1,2
73,4,1,2
73,0,1,2
73,19,1,2
73,9,1,2
73,3,1,2
74,0,1,2
74,0,1,2
74,17,1,2
74,4,1,2
74,4,1,2
74,2,1,2
74,30,1,2
74,5,1,2
74,4,1,2
74,3,1,2
74,3,1,2
74,12,1,2
74,2,1,2
74,34,1,2
74,3,1,2
74,27,1,2
74,0,1,2
74,5,1,2
75,1,1,2
75,1,1,2
75,11,1,2
75,5,1,2
75,2,1,2
75,4,1,2
75,18,1,2
75,0,1,2
75,4,1,2
75,5,1,2
75,8,1,2
75,22,1,2
75,5,1,2
75,5,1,2
75,0,1,2
75,2,1,2
75,11,1,2
75,3,1,2
76,0,1,2
76,36,1,2
76,19,1,2
76,17,1,2
76,0,1,2
76,3,1,2
76,22,1,2
76,8,1,2
76,3,1,2
76,4,1,2
76,0,1,2
76,19,1,2
76,30,1,2
76,3,1,2
76,2,1,2
76,20,1,2
76,6,1,2
76,0,1,2
77,3,1,2
77,6,1,2
77,19,1,2
77,7,1,2
77,4,1,2
77,0,1,2
77,0,1,2
77,13,1,2
77,4,1,2
77,5,1,2
78,5,1,2
78,29,1,2
78,7,1,2
78,2,1,2
78,2,1,2
78,8,1,2
78,16,1,2
78,0,1,2
78,23,1,2
78,0,1,2
78,31,1,2
78,7,1,2
79,5,1,2
79,0,1,2
79,0,1,2
79,15,1,2
79,4,1,2
79,0,1,2
79,4,1,2
79,7,1,2
79,9,1,2
79,13,1,2
79,0,1,2
80,5,1,2
80,24,1,2
80,0,1,2
80,1,1,2
80,5,1,2
80,6,1,2
80,12,1,2
80,3,1,2
80,0,1,2
80,16,1,2
80,27,1,2
80,8,1,2
80,4,1,2
80,0,1,2
80,11,1,2
80,4,1,2
81,0,1,2
81,2,1,2
81,2,1,2
81,20,1,2
81,6,1,2
81,1,1,2
81,10,1,2
81,2,1,2
81,11,1,2
81,3,1,2
81,3,1,2
81,0,1,2
81,20,1,2
81,5,1,2
81,2,1,2
81,1,1,2
81,2,1,2
82,34,1,2
82,4,1,2
82,4,1,2
82,13,1,2
82,21,1,2
82,5,1,2
82,5,1,2
82,0,1,2
82,0,1,2
82,18,1,2
82,3,1,2
82,6,1,2
82,4,1,2
82,13,1,2
82,4,1,2
82,2,1,2
82,3,1,2
82,4,1,2
83,29,1,2
83,0,1,2
83,2,1,2
83,4,1,2
83,12,1,2
83,7,1,2
83,36,1,2
83,3,1,2
83,6,1,2
83,32,1,2
83,4,1,2
83,1,1,2
83,2,1,2
83,3,1,2
83,16,1,2
83,3,1,2
83,2,1,2
83,0,1,2
84,14,1,2
84,4,1,2
84,4,1,2
84,6,1,2
84,0,1,2
84,25,1,2
84,3,1,2
84,13,1,2
84,7,1,2
84,15,1,2
84,0,1,2
84,6,1,2
84,19,1,2
84,1,1,2
84,13,1,2
84,2,1,2
84,2,1,2
84,4,1,2
85,13,1,2
85,2,1,2
85,3,1,2
85,4,1,2
85,7,1,2
85,28,1,2
85,1,1,2
85,9,1,2
85,1,1,2
85,0,1,2
85,11,1,2
85,5,1,2
85,5,1,2
85,0,1,2
85,21,1,2
85,4,1,2
85,0,1,2
86,2,1,2
86,16,1,2
86,11,1,2
86,9,1,2
86,3,1,2
86,2,1,2
86,24,1,2
86,0,1,2
86,0,1,2
86,0,1,2
86,0,1,2
86,17,1,2
86,19,1,2
86,4,1,2
86,4,1,2
86,24,1,2
86,3,1,2
87,1,1,2
87,3,1,2
87,9,1,2
87,16,1,2
87,1,1,2
87,0,1,2
87,0,1,2
87,0,1,2
87,52,1,2
87,1,1,2
87,3,1,2
87,4,1,2
87,30,1,2
88,13,1,2
88,0,1,2
88,0,1,2
88,0,1,2
88,9,1,2
88,3,1,2
88,13,1,2
88,0,1,2
88,31,1,2
88,7,1,2
88,2,1,2
88,1,1,2
88,0,1,2
88,15,1,2
88,3,1,2
89,0,1,2
89,1,1,2
89,6,1,2
89,8,1,2
89,26,1,2
89,0,1,2
89,4,1,2
89,27,1,2
89,6,1,2
89,7,1,2
89,0,1,2
89,4,1,2
89,8,1,2
89,0,1,2
89,3,1,2
89,2,1,2
89,1,1,2
90,27,1,2
90,6,1,2
90,0,1,2
90,2,1,2
90,27,1,2
90,2,1,2
90,0,1,2
90,0,1,2
90,6,1,2
90,17,1,2
90,3,1,2
90,25,1,2
90,0,1,2
90,30,1,2
90,2,1,2
90,6,1,2
90,3,1,2
90,2,1,2
91,17,1,2
91,1,1,2
91,2,1,2
91,0,1,2
91,3,1,2
91,11,1,2
91,11,1,2
91,0,1,2
91,0,1,2
91,15,1,2
91,6,1,2
91,6,1,2
91,0,1,2
91,3,1,2
91,5,1,2
91,1,1,2
91,4,1,2
91,35,1,2
92,24,1,2
92,5,1,2
92,0,1,2
92,2,1,2
92,8,1,2
92,8,1,2
92,9,1,2
92,2,1,2
92,0,1,2
92,5,1,2
92,9,1,2
92,4,1,2
92,18,1,2
93,0,1,2
93,25,1,2
93,8,1,2
93,0,1,2
93,0,1,2
93,9,1,2
93,18,1,2
93,1,1,2
93,0,1,2
93,3,1,2
93,8,1,2
93,10,1,2
93,6,1,2
93,0,1,2
93,3,1,2
93,33,1,2
93,3,1,2
93,0,1,2
94,3,1,2
94,1,1,2
94,15,1,2
94,2,1,2
94,0,1,2
94,32,1,2
94,30,1,2
94,12,1,2
94,4,1,2
94,0,1,2
94,2,1,2
94,8,1,2
94,1,1,2
94,2,1,2
94,1,1,2
94,10,1,2
94,24,1,2
94,3,1,2
95,12,1,2
95,10,1,2
95,14,1,2
95,0,1,2
95,1,1,2
95,3,1,2
95,16,1,2
95,1,1,2
95,3,1,2
95,4,1,2
95,10,1,2
95,10,1,2
95,0,1,2
95,4,1,2
95,1,1,2
96,15,1,2
96,6,1,2
96,4,1,2
96,0,1,2
96,0,1,2
96,7,1,2
96,1,1,2
96,35,1,2
96,1,1,2
96,30,1,2
96,2,1,2
96,1,1,2
96,0,1,2
96,3,1,2
97,13,1,2
97,6,1,2
97,0,1,2
97,0,1,2
97,10,1,2
97,3,1,2
97,12,1,2
97,3,1,2
97,7,1,2
97,13,1,2
97,0,1,2
97,5,1,2
97,8,1,2
98,9,1,2
98,1,1,2
98,1,1,2
98,2,1,2
98,41,1,2
98,24,1,2
98,6,1,2
98,0,1,2
98,0,1,2
98,1,1,2
98,12,1,2
98,0,1,2
98,1,1,2
98,0,1,2
98,24,1,2
98,6,1,2
98,4,1,2
98,5,1,2
98,0,1,2
99,18,1,2
99,4,1,2
99,0,1,2
99,0,1,2
99,1,1,2
99,5,1,2
99,7,1,2
99,2,1,2
99,0,1,2
99,26,1,2
99,5,1,2
99,1,1,2
99,0,1,2
99,2,1,2
99,27,1,2
99,3,1,2
99,2,1,2
99,2,1,2
99,0,1,2
100,9,1,2
100,0,1,2
100,0,1,2
100,31,1,2
100,18,1,2
100,7,1,2
100,0,1,2
100,5,1,2
100,3,1,2
100,20,1,2
100,0,1,2
100,0,1,2
100,0,1,2
100,2,1,2
100,9,1,2
100,1,1,2
100,25,1,2
100,3,1,2
101,29,1,2
101,2,1,2
101,0,1,2
101,0,1,2
101,0,1,2
101,16,1,2
101,14,1,2
101,0,1,2
101,0,1,2
101,32,1,2
101,7,1,2
101,2,1,2
101,0,1,2
101,0,1,2
101,14,1,2
101,0,1,2
101,2,1,2
101,2,1,2
101,2,1,2
102,7,1,2
102,3,1,2
102,3,1,2
102,10,1,2
102,31,1,2
102,6,1,2
102,4,1,2
102,0,1,2
102,0,1,2
102,12,1,2
102,2,1,2
102,0,1,2
102,2,1,2
102,14,1,2
102,26,1,2
102,0,1,2
102,4,1,2
102,2,1,2
103,11,1,2
103,1,1,2
103,3,1,2
103,3,1,2
103,13,1,2
103,7,1,2
103,0,1,2
103,1,1,2
103,0,1,2
103,26,1,2
103,4,1,2
103,5,1,2
103,0,1,2
103,0,1,2
103,11,1,2
103,3,1,2
103,2,1,2
104,13,1,2
104,20,1,2
104,0,1,2
104,26,1,2
104,7,1,2
104,16,1,2
104,5,1,2
104,4,1,2
104,12,1,2
104,0,1,2
105,10,1,2
105,0,1,2
105,1,1,2
105,1,1,2
105,37,1,2
105,4,1,2
105,4,1,2
105,4,1,2
105,2,1,2
105,19,1,2
105,6,1,2
105,3,1,2
105,3,1,2
105,1,1,2
106,10,1,2
106,0,1,2
106,0,1,2
106,10,1,2
106,19,1,2
106,5,1,2
106,3,1,2
106,3,1,2
106,1,1,2
106,9,1,2
106,0,1,2
106,1,1,2
106,0,1,2
106,5,1,2
106,22,1,2
106,6,1,2
106,0,1,2
106,3,1,2
107,30,1,2
107,1,1,2
107,3,1,2
107,5,1,2
107,0,1,2
107,12,1,2
107,4,1,2
107,3,1,2
107,6,1,2
107,28,1,2
107,1,1,2
107,2,1,2
107,3,1,2
107,2,1,2
107,25,1,2
107,3,1,2
108,0,1,2
108,3,1,2
108,1,1,2
108,12,1,2
108,6,1,2
108,2,1,2
108,5,1,2
108,24,1,2
108,6,1,2
108,2,1,2
108,2,1,2
108,3,1,2
108,18,1,2
108,5,1,2
108,13,1,2
108,11,1,2
108,32,1,2
108,9,1,2
109,3,1,2
109,2,1,2
109,6,1,2
109,10,1,2
109,0,1,2
109,0,1,2
109,4,1,2
109,24,1,2
109,3,1,2
109,0,1,2
109,24,1,2
109,7,1,2
109,9,1,2
109,2,1,2
109,4,1,2
109,8,1,2
109,0,1,2
109,8,1,2
109,3,1,2
110,4,1,2
110,3,1,2
110,8,1,2
110,6,1,2
110,26,1,2
110,3,1,2
110,0,1,2
110,25,1,2
110,6,1,2
110,3,1,2
110,0,1,2
110,0,1,2
110,18,1,2
110,6,1,2
110,0,1,2
110,1,1,2
110,20,1,2
110,34,1,2
111,5,1,2
111,3,1,2
111,2,1,2
111,11,1,2
111,0,1,2
111,1,1,2
111,0,1,2
111,20,1,2
111,2,1,2
111,0,1,2
111,29,1,2
111,3,1,2
111,9,1,2
111,5,1,2
111,7,1,2
111,0,1,2
111,4,1,2
111,6,1,2
112,0,1,2
112,3,1,2
112,10,1,2
112,25,1,2
112,8,1,2
112,8,1,2
112,0,1,2
112,13,1,2
112,11,1,2
112,3,1,2
112,1,1,2
112,0,1,2
113,27,1,2
113,4,1,2
113,2,1,2
113,6,1,2
113,26,1,2
113,9,1,2
113,5,1,2
113,4,1,2
113,2,1,2
113,8,1,2
113,10,1,2
113,4,1,2
113,0,1,2
114,0,1,2
114,28,1,2
114,6,1,2
114,7,1,2
114,13,1,2
114,13,1,2
114,3,1,2
114,0,1,2
114,6,1,2
114,3,1,2
114,24,1,2
114,3,1,2
114,0,1,2
114,0,1,2
114,0,1,2
114,38,1,2
114,5,1,2
114,9,1,2
115,5,1,2
115,22,1,2
115,0,1,2
115,0,1,2
115,3,1,2
115,4,1,2
115,18,1,2
115,5,1,2
115,4,1,2
115,3,1,2
115,21,1,2
115,8,1,2
115,7,1,2
115,0,1,2
115,3,1,2
115,30,1,2
115,2,1,2
115,2,1,2
115,3,1,2
116,3,1,2
116,16,1,2
116,37,1,2
116,2,1,2
116,4,1,2
116,30,1,2
116,7,1,2
116,0,1,2
116,0,1,2
116,1,1,2
116,15,1,2
116,4,1,2
116,2,1,2
116,5,1,2
116,14,1,2
116,12,1,2
116,0,1,2
116,5,1,2
117,0,1,2
117,14,1,2
117,1,1,2
117,9,1,2
117,1,1,2
117,14,1,2
117,2,1,2
117,2,1,2
117,43,1,2
117,0,1,2
117,12,1,2
117,5,1,2
117,8,1,2
117,3,1,2
117,17,1,2
117,4,1,2
117,4,1,2
117,1,1,2
118,2,1,2
118,21,1,2
118,5,1,2
118,56,1,2
118,3,1,2
118,18,1,2
118,8,1,2
118,17,1,2
118,0,1,2
118,2,1,2
118,11,1,2
118,6,1,2
118,4,1,2
118,3,1,2
118,27,1,2
118,4,1,2
118,8,1,2
118,5,1,2
119,5,1,2
119,21,1,2
119,3,1,2
119,2,1,2
119,0,1,2
119,1,1,2
119,12,1,2
119,29,1,2
119,9,1,2
119,4,1,2
119,22,1,2
119,5,1,2
119,2,1,2
119,0,1,2
119,3,1,2
119,10,1,2
119,2,1,2
119,2,1,2
120,2,1,2
120,28,1,2
120,10,1,2
120,0,1,2
120,0,1,2
120,2,1,2
120,11,1,2
120,7,1,2
120,3,1,2
120,5,1,2
120,28,1,2
120,3,1,2
120,0,1,2
120,51,1,2
120,0,1,2
121,13,1,2
121,12,1,2
121,2,1,2
121,3,1,2
121,19,1,2
121,2,1,2
121,4,1,2
121,3,1,2
121,2,1,2
121,10,1,2
121,1,1,2
122,4,1,2
122,2,1,2
122,30,1,2
122,4,1,2
122,3,1,2
122,2,1,2
122,4,1,2
122,16,1,2
122,8,1,2
122,8,1,2
122,4,1,2
122,44,1,2
122,0,1,2
122,32,1,2
122,7,1,2
122,1,1,2
123,16,1,2
123,13,1,2
123,11,1,2
123,1,1,2
123,17,1,2
123,5,1,2
123,28,1,2
123,0,1,2
123,28,1,2
123,6,1,2
123,15,1,2
124,12,1,2
124,24,1,2
124,2,1,2
124,5,1,2
124,0,1,2
124,5,1,2
124,30,1,2
124,0,1,2
124,6,1,2
124,0,1,2
124,1,1,2
124,13,1,2
124,7,1,2
124,3,1,2
124,9,1,2
124,31,1,2
124,6,1,2
124,5,1,2
125,11,1,2
125,10,1,2
125,0,1,2
125,4,1,2
125,6,1,2
125,1,1,2
125,30,1,2
125,9,1,2
125,8,1,2
125,2,1,2
125,0,1,2
125,18,1,2
125,24,1,2
125,0,1,2
125,0,1,2
125,31,1,2
125,5,1,2
126,1,1,2
126,16,1,2
126,3,1,2
126,12,1,2
126,0,1,2
126,10,1,2
126,24,1,2
126,15,1,2
126,0,1,2
126,0,1,2
126,1,1,2
126,24,1,2
126,12,1,2
126,12,1,2
126,0,1,2
126,17,1,2
126,7,1,2
127,32,1,2
127,4,1,2
127,12,1,2
127,16,1,2
127,8,1,2
127,0,1,2
127,0,1,2
127,29,1,2
127,4,1,2
127,1,1,2
127,4,1,2
127,6,1,2
127,12,1,2
127,8,1,2
127,8,1,2
127,17,1,2
127,27,1,2
127,0,1,2
128,0,1,2
128,7,1,2
128,3,1,2
128,12,1,2
128,11,1,2
128,12,1,2
128,3,1,2
128,16,1,2
128,8,1,2
128,1,1,2
128,4,1,2
128,11,1,2
128,7,1,2
128,3,1,2
128,5,1,2
128,0,1,2
128,24,1,2
128,32,1,2
129,9,1,2
129,0,1,2
129,13,1,2
129,11,1,2
129,3,1,2
129,0,1,2
129,14,1,2
129,7,1,2
129,0,1,2
129,27,1,2
129,29,1,2
130,12,1,2
130,6,1,2
130,4,1,2
130,5,1,2
130,16,1,2
130,3,1,2
130,18,1,2
130,0,1,2
130,2,1,2
130,10,1,2
130,27,1,2
130,4,1,2
130,8,1,2
130,24,1,2
130,3,1,2
131,2,1,2
131,7,1,2
131,4,1,2
131,12,1,2
131,4,1,2
131,8,1,2
131,0,1,2
131,22,1,2
131,13,1,2
131,10,1,2
131,5,1,2
131,12,1,2
131,0,1,2
131,8,1,2
131,5,1,2
131,0,1,2
132,25,1,2
132,0,1,2
132,2,1,2
132,24,1,2
132,17,1,2
132,5,1,2
132,0,1,2
132,0,1,2
132,2,1,2
132,23,1,2
132,6,1,2
132,1,1,2
132,2,1,2
132,7,1,2
132,11,1,2
132,10,1,2
132,0,1,2
133,4,1,2
133,23,1,2
133,3,1,2
133,5,1,2
133,5,1,2
133,4,1,2
133,12,1,2
133,9,1,2
133,0,1,2
133,2,1,2
133,32,1,2
133,6,1,2
133,6,1,2
133,3,1,2
133,10,1,2
133,17,1,2
133,2,1,2
134,11,1,2
134,0,1,2
134,26,1,2
134,10,1,2
134,16,1,2
134,1,1,2
134,24,1,2
134,5,1,2
134,6,1,2
134,8,1,2
134,8,1,2
134,12,1,2
134,5,1,2
134,4,1,2
134,6,1,2
134,21,1,2
134,7,1,2
134,2,1,2
135,6,1,2
135,5,1,2
135,20,1,2
135,4,1,2
135,4,1,2
135,4,1,2
135,14,1,2
135,0,1,2
135,1,1,2
135,0,1,2
135,23,1,2
135,18,1,2
135,10,1,2
135,0,1,2
135,0,1,2
135,23,1,2
135,8,1,2
135,4,1,2
136,9,1,2
136,12,1,2
136,9,1,2
136,41,1,2
136,0,1,2
136,7,1,2
136,21,1,2
136,8,1,2
136,8,1,2
136,9,1,2
136,7,1,2
136,18,1,2
136,3,1,2
136,0,1,2
136,0,1,2
136,4,1,2
136,21,1,2
136,0,1,2
136,4,1,2
137,4,1,2
137,30,1,2
137,5,1,2
137,4,1,2
137,2,1,2
137,5,1,2
137,15,1,2
137,6,1,2
137,30,1,2
137,3,1,2
137,32,1,2
137,7,1,2
137,5,1,2
137,5,1,2
137,19,1,2
138,4,1,2
138,5,1,2
138,0,1,2
138,0,1,2
138,13,1,2
138,8,1,2
138,11,1,2
138,4,1,2
138,3,1,2
138,12,1,2
139,1,1,2
139,5,1,2
139,4,1,2
139,14,1,2
139,14,1,2
139,4,1,2
139,7,1,2
139,13,1,2
139,8,1,2
139,0,1,2
139,0,1,2
140,4,1,2
140,18,1,2
140,8,1,2
140,8,1,2
140,4,1,2
140,3,1,2
140,21,1,2
140,29,1,2
140,3,1,2
140,2,1,2
140,18,1,2
140,7,1,2
140,3,1,2
141,4,1,2
141,2,1,2
141,22,1,2
141,0,1,2
141,0,1,2
141,7,1,2
141,6,1,2
141,20,1,2
141,0,1,2
141,5,1,2
141,8,1,2
141,24,1,2
141,8,1,2
141,6,1,2
141,4,1,2
141,8,1,2
141,17,1,2
141,2,1,2
142,15,1,2
142,0,1,2
142,27,1,2
142,3,1,2
142,6,1,2
142,5,1,2
142,7,1,2
142,18,1,2
142,8,1,2
142,7,1,2
142,5,1,2
142,6,1,2
142,14,1,2
142,15,1,2
142,0,1,2
142,0,1,2
142,18,1,2
143,0,1,2
143,0,1,2
143,2,1,2
143,3,1,2
143,17,1,2
143,11,1,2
143,0,1,2
143,40,1,2
143,10,1,2
143,0,1,2
143,0,1,2
143,4,1,2
143,29,1,2
143,6,1,2
143,12,1,2
143,0,1,2
143,2,1,2
144,7,1,2
144,14,1,2
144,4,1,2
144,7,1,2
144,30,1,2
144,9,1,2
144,0,1,2
144,4,1,2
144,3,1,2
144,16,1,2
144,7,1,2
144,4,1,2
144,4,1,2
144,10,1,2
144,19,1,2
144,5,1,2
144,7,1,2
144,8,1,2
145,15,1,2
145,0,1,2
145,3,1,2
145,2,1,2
145,9,1,2
145,10,1,2
145,4,1,2
145,30,1,2
145,3,1,2
145,19,1,2
145,7,1,2
145,5,1,2
145,2,1,2
145,8,1,2
145,8,1,2
145,8,1,2
145,7,1,2
146,2,1,2
146,18,1,2
146,8,1,2
146,16,1,2
146,0,1,2
146,0,1,2
146,13,1,2
146,2,1,2
146,4,1,2
146,5,1,2
146,19,1,2
147,5,1,2
147,4,1,2
147,11,1,2
147,30,1,2
147,3,1,2
147,0,1,2
147,7,1,2
147,8,1,2
147,19,1,2
148,2,1,2
148,0,1,2
148,1,1,2
148,5,1,2
148,20,1,2
148,1,1,2
148,8,1,2
148,9,1,2
148,4,1,2
148,15,1,2
148,3,1,2
148,8,1,2
148,3,1,2
149,29,1,2
149,4,1,2
149,4,1,2
149,3,1,2
149,2,1,2
149,30,1,2
149,4,1,2
149,48,1,2
149,11,1,2
149,18,1,2
149,8,1,2
149,12,1,2
149,0,1,2
149,30,1,2
149,6,1,2
149,14,1,2
150,38,1,2
150,26,1,2
150,12,1,2
150,9,1,2
150,9,1,2
150,2,1,2
150,15,1,2
150,1,1,2
150,3,1,2
150,3,1,2
150,26,1,2
150,32,1,2
150,5,1,2
151,10,1,2
151,21,1,2
151,9,1,2
151,5,1,2
151,5,1,2
151,2,1,2
151,21,1,2
151,0,1,2
151,0,1,2
151,6,1,2
151,8,1,2
151,13,1,2
151,0,1,2
151,8,1,2
152,9,1,2
152,28,1,2
152,8,1,2
152,0,1,2
152,1,1,2
152,0,1,2
152,18,1,2
152,3,1,2
152,24,1,2
152,4,1,2
152,28,1,2
152,7,1,2
152,6,1,2
152,5,1,2
152,4,1,2
152,15,1,2
153,7,1,2
153,3,1,2
153,5,1,2
153,5,1,2
153,7,1,2
153,14,1,2
153,4,1,2
153,7,1,2
153,32,1,2
153,4,1,2
153,4,1,2
154,4,1,2
154,7,1,2
154,14,1,2
154,4,1,2
154,1,1,2
154,35,1,2
155,27,1,2
155,0,1,2
155,9,1,2
155,7,1,2
155,0,1,2
155,13,1,2
155,5,1,2
155,8,1,2
155,0,1,2
155,19,1,2
155,9,1,2
156,4,1,2
156,10,1,2
156,3,1,2
156,16,1,2
156,7,1,2
156,6,1,2
156,4,1,2
156,22,1,2
156,9,1,2
156,8,1,2
156,1,1,2
157,7,1,2
157,36,1,2
157,7,1,2
157,0,1,2
157,0,1,2
157,8,1,2
157,8,1,2
157,8,1,2
157,15,1,2
157,13,1,2
157,21,1,2
157,14,1,2
157,28,1,2
157,8,1,2
157,23,1,2
157,4,1,2
157,7,1,2
158,4,1,2
158,8,1,2
158,15,1,2
158,9,1,2
158,0,1,2
158,4,1,2
158,29,1,2
158,3,1,2
158,16,1,2
158,0,1,2
158,4,1,2
158,6,1,2
158,10,1,2
158,4,1,2
158,4,1,2
158,29,1,2
158,5,1,2
158,7,1,2
158,3,1,2
159,35,1,2
159,6,1,2
159,8,1,2
159,2,1,2
159,8,1,2
159,13,1,2
159,0,1,2
159,0,1,2
159,5,1,2
159,5,1,2
159,32,1,2
159,2,1,2
159,4,1,2
159,42,1,2
159,10,1,2
159,10,1,2
159,4,1,2
160,3,1,2
160,3,1,2
160,17,1,2
160,4,1,2
160,3,1,2
160,1,1,2
160,7,1,2
160,36,1,2
160,8,1,2
160,4,1,2
160,1,1,2
160,32,1,2
160,5,1,2
160,6,1,2
160,7,1,2
160,5,1,2
160,16,1,2
160,3,1,2
161,3,1,2
161,5,1,2
161,15,1,2
161,5,1,2
161,12,1,2
161,8,1,2
161,11,1,2
161,7,1,2
161,3,1,2
161,10,1,2
161,0,1,2
161,30,1,2
161,2,1,2
161,10,1,2
161,5,1,2
161,8,1,2
161,6,1,2
161,3,1,2
161,3,1,2
162,4,1,2
162,15,1,2
162,4,1,2
162,4,1,2
162,4,1,2
162,17,1,2
162,16,1,2
162,11,1,2
162,5,1,2
162,0,1,2
162,31,1,2
162,4,1,2
162,4,1,2
162,4,1,2
162,3,1,2
162,12,1,2
162,1,1,2
163,3,1,2
163,11,1,2
163,27,1,2
163,8,1,2
163,4,1,2
163,0,1,2
163,3,1,2
163,12,1,2
163,0,1,2
163,2,1,2
163,7,1,2
163,20,1,2
164,42,1,2
164,0,1,2
164,8,1,2
164,7,1,2
164,12,1,2
164,7,1,2
164,12,1,2
164,7,1,2
164,29,1,2
164,0,1,2
165,0,1,2
165,34,1,2
165,10,1,2
165,9,1,2
165,8,1,2
165,6,1,2
165,7,1,2
165,25,1,2
165,0,1,2
165,3,1,2
165,5,1,2
165,4,1,2
165,13,1,2
165,6,1,2
165,11,1,2
165,5,1,2
165,25,1,2
165,3,1,2
166,4,1,2
166,6,1,2
166,8,1,2
166,15,1,2
166,8,1,2
166,2,1,2
166,1,1,2
166,46,1,2
166,2,1,2
166,5,1,2
166,7,1,2
166,3,1,2
166,19,1,2
166,6,1,2
166,2,1,2
166,2,1,2
166,12,1,2
166,1,1,2
167,9,1,2
167,1,1,2
167,7,1,2
167,33,1,2
167,14,1,2
167,7,1,2
167,8,1,2
167,5,1,2
167,5,1,2
167,6,1,2
167,9,1,2
167,7,1,2
167,9,1,2
167,30,1,2
167,2,1,2
167,4,1,2
167,6,1,2
168,29,1,2
168,6,1,2
168,8,1,2
168,1,1,2
168,4,1,2
168,12,1,2
168,3,1,2
168,3,1,2
168,3,1,2
168,43,1,2
168,9,1,2
168,8,1,2
168,0,1,2
168,6,1,2
168,21,1,2
168,5,1,2
168,8,1,2
168,10,1,2
169,24,1,2
169,7,1,2
169,35,1,2
169,2,1,2
169,10,1,2
169,7,1,2
169,13,1,2
169,2,1,2
169,4,1,2
170,25,1,2
170,7,1,2
170,5,1,2
170,9,1,2
170,0,1,2
170,9,1,2
170,20,1,2
170,12,1,2
170,7,1,2
170,22,1,2
171,0,1,2
171,0,1,2
171,4,1,2
171,2,1,2
171,13,1,2
171,5,1,2
171,5,1,2
171,24,1,2
171,22,1,2
171,4,1,2
171,2,1,2
171,5,1,2
171,4,1,2
172,11,1,2
172,5,1,2
175,10,1,2
179,0,1,2
179,20,1,2
183,40,1,2
183,0,1,2
188,6,1,2
188,22,1,2
191,8,1,2
191,3,1,2
196,0,1,2
196,0,1,2
199,19,1,2
204,5,1,2
204,8,1,2
208,13,1,2
208,23,1,2
212,3,1,2
212,0,1,2
216,0,1,2
216,6,1,2
220,19,1,2
221,0,1,2
224,6,1,2
225,7,1,2
228,6,1,2
233,8,1,2
233,6,1,2
237,34,1,2
237,1,1,2
241,30,1,2
241,9,1,2
245,7,1,2
245,4,1,2
249,6,1,2
249,14,1,2
253,4,1,2
256,4,1,2
256,6,1,2
261,12,1,2
261,11,1,2
265,10,1,2
265,2,1,2
269,3,1,2
269,5,1,2
273,4,1,2
273,6,1,2
277,9,1,2
281,13,1,2
281,8,1,2
285,3,1,2
285,0,1,2
290,44,1,2
290,17,1,2
293,7,1,2
294,0,1,2
298,0,1,2
298,9,1,2
302,12,1,2
302,2,1,2
306,0,1,2
310,0,1,2
310,25,1,2
314,27,1,2
314,5,1,2
318,10,1,2
318,30,1,2
322,5,1,2
322,1,1,2
326,6,1,2
326,5,1,2
330,14,1,2
335,1,1,2
335,8,1,2
339,0,1,2
339,13,1,2
343,16,1,2
343,9,1,2
347,8,1,2
347,0,1,2
351,17,1,2
351,1,1,2
356,0,1,2
356,0,1,2
360,18,1,2
364,7,1,2
364,1,1,2
368,29,1,2
368,6,1,2
372,15,1,2
372,0,1,2
376,5,1,2
376,3,1,2
380,18,1,2
380,4,1,2
384,6,1,2
388,5,1,2
389,2,1,2
392,24,1,2
392,6,1,2
397,4,1,2
397,1,1,2
400,2,1,2
401,10,1,2
405,3,1,2
405,1,1,2
409,6,1,2
413,29,1,2
413,5,1,2
417,4,1,2
417,0,1,2
421,37,1,2
421,15,1,2
425,13,1,2
425,0,1,2
429,2,1,2
430,19,1,2
433,4,1,2
433,6,1,2
438,12,1,2
442,26,1,2
442,6,1,2
446,35,1,2
446,4,1,2
450,7,1,2
450,12,1,2
454,2,1,2
454,3,1,2
457,8,1,2
457,26,1,2
461,9,1,2
466,7,1,2
466,12,1,2
470,27,1,2
470,6,1,2
474,12,1,2
474,5,1,2
478,8,1,2
478,20,1,2
482,17,1,2
482,6,1,2
486,8,1,2
490,22,1,2
490,1,1,2
494,12,1,2
494,6,1,2
498,10,1,2
498,6,1,2
502,1,1,2
502,2,1,2
506,7,1,2
507,26,1,2
511,11,1,2
515,0,1,2
515,7,1,2
519,1,1,2
519,10,1,2
523,14,1,2
523,0,1,2
527,8,1,2
527,22,1,2
531,15,1,2
531,5,1,2
535,0,1,2
539,19,1,2
539,4,1,2
543,6,1,2
543,5,1,2
547,34,1,2
548,12,1,2
552,13,1,2
552,3,1,2
556,8,1,2
556,22,1,2
560,0,1,2
560,1,1,2
564,2,1,2
568,3,1,2
568,12,1,2
573,39,1,2
573,5,1,2
577,12,1,2
577,10,1,2
581,9,1,2
581,0,1,2
585,1,1,2
585,23,1,2
589,7,1,2
593,7,1,2
593,6,1,2
597,14,1,2
597,12,1,2
601,10,1,2
601,5,1,2
605,7,1,2
605,24,1,2
609,9,1,2
609,2,1,2
613,0,1,2
617,0,1,2
618,11,1,2
622,1,1,2
622,5,1,2
626,28,1,2
626,23,1,2
630,2,1,2
630,2,1,2
634,9,1,2
634,0,1,2
638,15,1,2
638,3,1,2
642,6,1,2
646,5,1,2
646,25,1,2
650,25,1,2
650,0,1,2
654,2,1,2
655,8,1,2
659,8,1,2
659,5,1,2
662,12,1,2
663,6,1,2
666,26,1,2
671,6,1,2
671,7,1,2
675,7,1,2
675,7,1,2
679,21,1,2
679,1,1,2
683,10,1,2
683,7,1,2
687,28,1,2
687,1,1,2
691,2,1,2
691,6,1,2
695,4,1,2
699,14,1,2
699,3,1,2
703,15,1,2
703,6,1,2
707,26,1,2
707,2,1,2
711,5,1,2
711,5,1,2
716,4,1,2
716,14,1,2
720,0,1,2
724,1,1,2
724,7,1,2
729,24,1,2
729,0,1,2
732,12,1,2
732,7,1,2
736,8,1,2
736,18,1,2
740,19,1,2
740,0,1,2
744,1,1,2
748,29,1,2
748,7,1,2
753,3,1,2
753,4,1,2
756,20,1,2
756,11,1,2
760,12,1,2
760,5,1,2
764,0,1,2
764,16,1,2
769,10,1,2
773,3,1,2
773,0,1,2
777,24,1,2
777,13,1,2
781,0,1,2
781,6,1,2
785,8,1,2
785,10,1,2
789,1,1,2
790,4,1,2
793,1,1,2
798,29,1,2
798,5,1,2
802,3,1,2
802,6,1,2
805,25,1,2
805,12,1,2
810,0,1,2
810,1,1,2
814,5,1,2
814,28,1,2
818,1,1,2
818,6,1,2
822,7,1,2
826,7,1,2
826,14,1,2
830,29,1,2
830,4,1,2
834,11,1,2
834,16,1,2
838,8,1,2
838,6,1,2
842,7,1,2
842,0,1,2
846,11,1,2
850,0,1,2
850,6,1,2
855,0,1,2
855,28,1,2
859,27,1,2
859,4,1,2
863,9,1,2
864,4,1,2
867,8,1,2
867,3,1,2
871,3,1,2
872,2,1,2
875,9,1,2
879,9,1,2
880,3,1,2
884,23,1,2
884,0,1,2
888,22,1,2
888,3,1,2
892,1,1,2
892,2,1,2
896,0,1,2
896,10,1,2
900,7,1,2
904,0,1,2
904,4,1,2
908,21,1,2
908,6,1,2
912,10,1,2
912,0,1,2
916,3,1,2
916,6,1,2
920,8,1,2
920,0,1,2
924,4,1,2
925,2,1,2
928,9,1,2
933,3,1,2
933,5,1,2
936,7,1,2
936,7,1,2
941,11,1,2
942,0,1,2
945,0,1,2
945,6,1,2
949,22,1,2
950,6,1,2
954,8,1,2
954,0,1,2
958,4,1,2
962,11,1,2
962,1,1,2
966,29,1,2
966,5,1,2
970,19,1,2
970,2,1,2
974,2,1,2
974,0,1,2
978,6,1,2
978,11,1,2
982,7,1,2
987,0,1,2
987,0,1,2
990,19,1,2
991,10,1,2
995,13,1,2
995,0,1,2
999,8,1,2
999,4,1,2
1003,2,1,2
1003,2,1,2
1007,5,1,2
1011,17,1,2
1011,7,1,2
1015,6,1,2
1015,1,1,2
1019,37,1,2
1019,10,1,2
1023,4,1,2
1023,1,1,2
1027,6,1,2
1027,17,1,2
1031,6,1,2
1031,2,1,2
1035,3,1,2
1039,1,1,2
1039,16,1,2
1043,25,1,2
1043,3,1,2
1047,8,1,2
1047,22,1,2
1051,2,1,2
1051,0,1,2
1056,1,1,2
1056,3,1,2
1060,16,1,2
1064,4,1,2
1064,4,1,2
1068,3,1,2
1068,7,1,2
1072,17,1,2
1072,3,1,2
1076,0,1,2
1076,2,1,2
1080,25,1,2
1081,6,1,2
1085,0,1,2
1085,2,1,2
1089,1,1,2
1093,13,1,2
1093,2,1,2
1097,15,1,2
1097,10,1,2
1101,17,1,2
1101,7,1,2
1105,0,1,2
1105,1,1,2
1109,8,1,2
1109,4,1,2
1113,4,1,2
1117,0,1,2
1117,5,1,2
1121,5,1,2
1121,6,1,2
1126,18,1,2
1126,7,1,2
1130,4,1,2
1130,24,1,2
1134,3,1,2
1134,0,1,2
1138,6,1,2
1138,4,1,2
1142,10,1,2
1146,4,1,2
1146,2,1,2
1150,13,1,2
1150,22,1,2
1154,11,1,2
1154,1,1,2
1158,0,1,2
1158,9,1,2
1162,9,1,2
1162,7,1,2
1166,0,1,2
1166,0,1,2
1170,18,1,2
1175,6,1,2
1175,3,1,2
1179,15,1,2
1179,1,1,2
1183,10,1,2
1183,1,1,2
1187,11,1,2
1187,7,1,2
1191,20,1,2
1191,5,1,2
1195,5,1,2
1199,0,1,2
1199,8,1,2
1203,41,1,2
1203,2,1,2
1207,5,1,2
1207,4,1,2
1211,23,1,2
1211,0,1,2
1215,0,1,2
1215,0,1,2
1219,5,1,2
1223,15,1,2
1223,6,1,2
1227,7,1,2
1227,0,1,2
1231,10,1,2
1232,6,1,2
1235,4,1,2
1236,1,1,2
1240,3,1,2
1240,30,1,2
1244,0,1,2
1244,4,1,2
1248,7,1,2
1252,4,1,2
1252,14,1,2
1256,33,1,2
1257,0,1,2
1260,0,1,2
1260,30,1,2
1264,2,1,2
1264,7,1,2
1268,9,1,2
1268,0,1,2
1272,13,1,2
1276,6,1,2
1276,8,1,2
1281,3,1,2
1281,12,1,2
1285,11,1,2
1285,0,1,2
1289,2,1,2
1289,4,1,2
1293,13,1,2
1293,3,1,2
1297,0,1,2
1298,1,1,2
1301,14,1,2
1305,7,1,2
1305,10,1,2
1310,16,1,2
1310,6,1,2
1314,14,1,2
1315,5,1,2
1317,6,1,2
1317,5,1,2
1321,30,1,2
1322,0,1,2
1326,3,1,2
1330,0,1,2
1330,1,1,2
1334,28,1,2
1334,4,1,2
1338,11,1,2
1338,6,1,2
1342,24,1,2
1342,6,1,2
1346,8,1,2
1346,1,1,2
1350,6,1,2
1354,7,1,2
1354,1,1,2
1359,9,1,2
1359,8,1,2
1363,21,1,2
1363,2,1,2
1367,0,1,2
1367,0,1,2
1371,9,1,2
1371,30,1,2
1375,4,1,2
1376,6,1,2
1379,11,1,2
1383,12,1,2
1384,5,1,2
1387,37,1,2
1388,9,1,2
1392,12,1,2
1392,7,1,2
1396,2,1,2
1396,7,1,2
1400,5,1,2
1400,5,1,2
1404,6,1,2
1408,6,1,2
1408,2,1,2
1412,7,1,2
1413,11,1,2
1416,45,1,2
1416,6,1,2
1420,8,1,2
1420,0,1,2
1424,13,1,2
1424,5,1,2
1428,10,1,2
1429,0,1,2
1433,28,1,2
1437,2,1,2
1437,8,1,2
1441,36,1,2
1441,8,1,2
1445,11,1,2
1445,0,1,2
1449,6,1,2
1449,5,1,2
1453,24,1,2
1453,8,1,2
1457,0,1,2
1461,0,1,2
1461,0,1,2
1465,11,1,2
1465,9,1,2
1469,12,1,2
1469,1,1,2
1474,26,1,2
1474,2,1,2
1477,0,1,2
1478,0,1,2
1482,5,1,2
1485,11,1,2
1486,3,1,2
1490,6,1,2
1490,4,1,2
1494,37,1,2
1494,3,1,2
1498,5,1,2
1498,3,1,2
1502,8,1,2
1502,19,1,2
1506,6,1,2
1506,1,1,2
1510,2,1,2
1514,4,1,2
1514,8,1,2
1518,1,1,2
1519,1,1,2
1523,14,1,2
1523,22,1,2
1527,9,1,2
1527,0,1,2
1531,2,1,2
1531,0,1,2
1535,15,1,2
1535,4,1,2
1539,0,1,2
1543,8,1,2
1543,2,1,2
1547,44,1,2
1547,0,1,2
1551,1,1,2
1551,1,1,2
1555,25,1,2
1555,5,1,2
1559,3,1,2
1559,4,1,2
1563,6,1,2
1567,12,1,2
1568,4,1,2
1571,0,1,2
1572,4,1,2
1576,18,1,2
1576,4,1,2
1580,1,1,2
1580,2,1,2
1584,0,1,2
1584,26,1,2
1588,9,1,2
1588,0,1,2
1592,0,1,2
1596,0,1,2
1596,10,1,2
1600,28,1,2
1600,7,1,2
1604,4,1,2
1604,25,1,2
1608,3,1,2
1609,5,1,2
1612,9,1,2
1613,7,1,2
1617,10,1,2
1621,0,1,2
1621,2,1,2
1625,10,1,2
1625,35,1,2
1629,13,1,2
1629,0,1,2
1633,8,1,2
1633,16,1,2
1637,5,1,2
1637,0,1,2
1641,0,1,2
1641,0,1,2
1645,20,1,2
1649,7,1,2
1649,0,1,2
1653,24,1,2
1654,15,1,2
1657,0,1,2
1658,5,1,2
1662,5,1,2
1662,0,1,2
1666,18,1,2
1666,4,1,2
1670,13,1,2
1674,1,1,2
1674,15,1,2
1678,35,1,2
1678,4,1,2
1682,5,1,2
1682,3,1,2
1686,15,1,2
1686,8,1,2
1690,0,1,2
1691,2,1,2
1694,16,1,2
1698,0,1,2
1699,3,1,2
1703,0,1,2
1703,4,1,2
1707,24,1,2
1707,5,1,2
1711,3,1,2
1711,1,1,2
1715,5,1,2
1715,6,1,2
1719,10,1,2
1720,1,1,2
1723,3,1,2
1728,25,1,2
1728,4,1,2
1732,36,1,2
1732,0,1,2
1736,5,1,2
1736,7,1,2
1739,9,1,2
1740,8,1,2
1744,0,1,2
1744,5,1,2
1748,9,1,2
1748,1,1,2
1752,7,1,2
1756,0,1,2
1756,15,1,2
1761,21,1,2
1761,0,1,2
1765,6,1,2
1765,0,1,2
1769,8,1,2
1769,7,1,2
1773,14,1,2
1773,0,1,2
1777,18,1,2
1780,6,1,2
1781,4,1,2
1785,28,1,2
1785,0,1,2
1789,13,1,2
1789,0,1,2
1793,0,1,2
1793,9,1,2
1797,19,1,2
1798,10,1,2
1801,1,1,2
1805,0,1,2
1806,0,1,2
1810,6,1,2
1810,0,1,2
1814,14,1,2
1814,5,1,2
1818,22,1,2
1818,3,1,2
1822,5,1,2
1822,1,1,2
1826,2,1,2
1830,16,1,2
1830,5,1,2
1834,0,1,2
1834,0,1,2
1838,37,1,2
1838,3,1,2
1842,6,1,2
1842,6,1,2
1846,4,1,2
1846,29,1,2
1850,7,1,2
1851,0,1,2
1855,7,1,2
1858,13,1,2
1858,5,1,2
1862,0,1,2
1862,1,1,2
1866,14,1,2
1866,21,1,2
1870,5,1,2
1870,0,1,2
1874,4,1,2
1875,1,1,2
1879,9,1,2
1879,4,1,2
1883,5,1,2
1887,4,1,2
1887,8,1,2
1891,32,1,2
1892,0,1,2
1895,1,1,2
1896,5,1,2
1900,22,1,2
1900,2,1,2
1904,16,1,2
1904,9,1,2
1908,0,1,2
1912,12,1,2
1912,1,1,2
1916,1,1,2
1916,0,1,2
1920,34,1,2
1920,2,1,2
1924,3,1,2
1924,0,1,2
1928,11,1,2
1928,6,1,2
1933,8,1,2
1933,5,1,2
1936,5,1,2
1940,8,1,2
1940,5,1,2
1944,19,1,2
1944,8,1,2
1948,11,1,2
1948,12,1,2
1952,4,1,2
1952,0,1,2
1956,5,1,2
1956,6,1,2
1961,6,1,2
1965,5,1,2
1965,2,1,2
1969,1,1,2
1970,14,1,2
1974,38,1,2
1974,10,1,2
1978,4,1,2
1978,4,1,2
1982,8,1,2
1982,0,1,2
1986,5,1,2
1986,3,1,2
1990,18,1,2
1994,0,1,2
1994,5,1,2
1998,30,1,2
1998,2,1,2
2002,16,1,2
2002,7,1,2
2006,5,1,2
2006,1,1,2
2010,14,1,2
2010,7,1,2
2014,5,1,2
2018,1,1,2
2018,0,1,2
2022,17,1,2
2022,8,1,2
2027,11,1,2
2027,0,1,2
2031,17,1,2
2031,7,1,2
2035,2,1,2
2035,8,1,2
2039,0,1,2
2043,16,1,2
2043,1,1,2
2047,5,1,2
2047,6,1,2
2051,30,1,2
2051,3,1,2
2055,3,1,2
2056,16,1,2
2059,0,1,2
2059,16,1,2
2063,8,1,2
2063,3,1,2
2067,0,1,2
2071,0,1,2
2072,10,1,2
2076,9,1,2
2076,11,1,2
2080,3,1,2
2080,16,1,2
2084,11,1,2
2084,0,1,2
2088,5,1,2
2088,23,1,2
2092,8,1,2
2096,4,1,2
2096,0,1,2
2100,0,1,2
2100,15,1,2
2104,12,1,2
2104,4,1,2
2108,12,1,2
2108,18,1,2
2112,6,1,2
2112,0,1,2
2117,0,1,2
2117,2,1,2
2121,11,1,2
2125,4,1,2
2125,9,1,2
2129,32,1,2
2129,16,1,2
2133,0,1,2
2133,2,1,2
2137,2,1,2
2137,6,1,2
2141,7,1,2
2141,2,1,2
2145,5,1,2
2149,12,1,2
2149,29,1,2
2153,35,1,2
2153,5,1,2
2157,5,1,2
2157,2,1,2
2161,12,1,2
2162,6,1,2
2165,5,1,2
2166,0,1,2
2170,22,1,2
2173,6,1,2
2174,5,1,2
2178,0,1,2
2178,9,1,2
2182,37,1,2
2182,5,1,2
2186,1,1,2
2186,0,1,2
2190,4,1,2
2190,4,1,2
2194,1,1,2
2194,2,1,2
2198,6,1,2
2202,12,1,2
2202,6,1,2
2206,3,1,2
2206,0,1,2
2210,4,1,2
2210,19,1,2
2215,0,1,2
2215,2,1,2
2219,5,1,2
2219,6,1,2
2223,9,1,2
2223,5,1,2
2227,3,1,2
2231,0,1,2
2231,0,1,2
2235,23,1,2
2235,3,1,2
2239,2,1,2
2239,0,1,2
2243,26,1,2
2243,9,1,2
2247,3,1,2
2247,0,1,2
2251,5,1,2
2255,15,1,2
2256,2,1,2
2260,2,1,2
2260,0,1,2
2264,27,1,2
2264,7,1,2
2268,1,1,2
2268,0,1,2
2272,0,1,2
2272,19,1,2
2276,0,1,2
2276,0,1,2
2281,0,1,2
2284,4,1,2
2284,9,1,2
2289,2,1,2
2289,9,1,2
2293,3,1,2
2293,1,1,2
2297,8,1,2
2297,0,1,2
2301,9,1,2
2301,8,1,2
2305,3,1,2
2305,9,1,2
2309,5,1,2
2313,9,1,2
2313,0,1,2
2317,11,1,2
2318,2,1,2
2321,7,1,2
2321,5,1,2
2325,7,1,2
2326,19,1,2
2329,5,1,2
2329,0,1,2
2334,4,1,2
2334,0,1,2
2338,7,1,2
2342,4,1,2
2342,5,1,2
2346,19,1,2
2346,20,1,2
2350,6,1,2
2350,4,1,2
2354,0,1,2
2354,0,1,2
2358,16,1,2
2358,5,1,2
2362,3,1,2
2366,0,1,2
2366,11,1,2
2370,11,1,2
2370,7,1,2
2374,1,1,2
2374,0,1,2
2378,14,1,2
2379,13,1,2
2382,2,1,2
2383,0,1,2
2387,23,1,2
2387,2,1,2
2391,4,1,2
2395,2,1,2
2395,7,1,2
2399,30,1,2
2399,2,1,2
2403,6,1,2
2403,4,1,2
2407,9,1,2
2407,3,1,2
2411,3,1,2
2411,0,1,2
2415,1,1,2
2419,13,1,2
2419,0,1,2
2423,3,1,2
2423,5,1,2
2427,9,1,2
2428,19,1,2
2431,4,1,2
2432,10,1,2
2436,0,1,2
2436,18,1,2
2440,0,1,2
2440,8,1,2
2444,0,1,2
2448,5,1,2
2448,17,1,2
2452,30,1,2
2452,0,1,2
2456,4,1,2
2456,18,1,2
2460,2,1,2
2460,1,1,2
2464,3,1,2
2464,2,1,2
2468,17,1,2
2472,10,1,2
2473,12,1,2
2477,38,1,2
2477,10,1,2
2481,13,1,2
2481,0,1,2
2485,4,1,2
2485,24,1,2
2489,8,1,2
2489,1,1,2
2493,2,1,2
2497,4,1,2
2497,8,1,2
2501,2,1,2
2501,8,1,2
2505,9,1,2
2505,2,1,2
2509,9,1,2
2509,0,1,2
2513,2,1,2
2514,4,1,2
2518,7,1,2
2518,7,1,2
2522,0,1,2
2526,4,1,2
2526,3,1,2
2530,13,1,2
2530,6,1,2
2534,6,1,2
2534,0,1,2
2538,8,1,2
2538,19,1,2
2542,5,1,2
2542,0,1,2
2546,4,1,2
2546,4,1,2
2550,8,1,2
2554,3,1,2
2554,1,1,2
2559,25,1,2
2559,18,1,2
2563,14,1,2
2563,3,1,2
2567,0,1,2
2568,4,1,2
2571,13,1,2
2572,8,1,2
2576,0,1,2
2580,1,1,2
2580,20,1,2
2584,6,1,2
2584,8,1,2
2588,12,1,2
2588,0,1,2
2592,7,1,2
2592,3,1,2
2596,0,1,2
2596,10,1,2
2600,22,1,2
2600,3,1,2
2604,15,1,2
2608,1,1,2
2608,0,1,2
2612,13,1,2
2613,9,1,2
2616,3,1,2
2617,9,1,2
2621,26,1,2
2621,3,1,2
2625,2,1,2
2625,1,1,2
2629,3,1,2
2633,13,1,2
2633,3,1,2
2637,19,1,2
2637,6,1,2
2641,24,1,2
2641,5,1,2
2645,9,1,2
2645,0,1,2
2649,0,1,2
2649,12,1,2
2653,1,1,2
2657,8,1,2
2658,1,1,2
2662,1,1,2
2662,9,1,2
2666,25,1,2
2666,0,1,2
2670,3,1,2
2670,21,1,2
2674,10,1,2
2674,4,1,2
2678,0,1,2
2678,5,1,2
2682,2,1,2
2686,0,1,2
2686,4,1,2
2690,19,1,2
2690,23,1,2
2694,11,1,2
2695,5,1,2
2698,0,1,2
2698,6,1,2
2702,5,1,2
2703,6,1,2
2707,4,1,2
2711,7,1,2
2711,15,1,2
2715,0,1,2
2715,6,1,2
2719,12,1,2
2719,4,1,2
2723,9,1,2
2723,0,1,2
2727,7,1,2
2727,3,1,2
2731,2,1,2
2731,10,1,2
2735,4,1,2
2739,1,1,2
2739,0,1,2
2744,20,1,2
2744,6,1,2
2748,15,1,2
2748,9,1,2
2752,0,1,2
2752,3,1,2
2756,4,1,2
2756,3,1,2
2759,6,1,2
2759,0,1,2
2763,7,1,2
2767,2,1,2
2768,1,1,2
2772,26,1,2
2772,26,1,2
2776,0,1,2
2776,6,1,2
2780,12,1,2
2780,4,1,2
2784,4,1,2
2784,4,1,2
2788,2,1,2
2793,0,1,2
2793,14,1,2
2797,9,1,2
2797,0,1,2
2801,9,1,2
2801,3,1,2
2805,17,1,2
2805,5,1,2
2809,0,1,2
2809,0,1,2
2813,4,1,2
2817,10,1,2
2817,7,1,2
2821,5,1,2
2821,2,1,2
2825,35,1,2
2825,0,1,2
2829,0,1,2
2829,0,1,2
2833,2,1,2
2833,14,1,2
2837,6,1,2
2837,5,1,2
2841,3,1,2
2846,0,1,2
2846,4,1,2
2850,0,1,2
2850,7,1,2
2854,18,1,2
2854,24,1,2
2858,5,1,2
2858,4,1,2
2862,5,1,2
2862,1,1,2
2866,11,1,2
2866,3,1,2
2870,2,1,2
2874,3,1,2
2874,4,1,2
2878,16,1,2
2878,1,1,2
2882,4,1,2
2882,1,1,2
2886,18,1,2
2886,2,1,2
2890,4,1,2
2890,6,1,2
2894,4,1,2
2895,7,1,2
2898,0,1,2
2903,0,1,2
2903,4,1,2
2907,24,1,2
2907,5,1,2
2911,0,1,2
2911,10,1,2
2915,9,1,2
2915,24,1,2
2919,0,1,2
2919,0,1,2
2923,7,1,2
2927,7,1,2
2927,12,1,2
2931,10,1,2
2931,0,1,2
2935,2,1,2
2935,16,1,2
2940,4,1,2
2940,4,1,2
2944,3,1,2
2944,5,1,2
2948,4,1,2
2948,1,1,2
2952,4,1,2
2956,1,1,2
2957,2,1,2
2960,36,1,2
2960,5,1,2
2964,5,1,2
2964,0,1,2
2968,22,1,2
2968,0,1,2
2972,4,1,2
2972,4,1,2
2976,4,1,2
2981,8,1,2
2981,2,1,2
2985,0,1,2
2985,0,1,2
2989,15,1,2
2989,7,1,2
2993,13,1,2
2993,0,1,2
2997,0,1,2
2997,19,1,2
3001,4,1,2
3001,0,1,2
3005,3,1,2
3009,2,1,2
3010,9,1,2
3013,21,1,2
3013,3,1,2
3017,6,1,2
3017,23,1,2
3021,8,1,2
3021,1,1,2
3026,1,1,2
3026,0,1,2
3030,14,1,2
3034,5,1,2
3034,6,1,2
3038,0,1,2
3038,7,1,2
3042,35,1,2
3042,0,1,2
3046,0,1,2
3046,7,1,2
3050,22,1,2
3051,3,1,2
3054,7,1,2
3055,0,1,2
3058,0,1,2
3062,8,1,2
3062,0,1,2
3067,5,1,2
3067,4,1,2
3071,19,1,2
3071,0,1,2
3075,4,1,2
3075,2,1,2
3079,2,1,2
3079,20,1,2
3083,4,1,2
3083,5,1,2
3087,8,1,2
3091,0,1,2
3091,14,1,2
3095,30,1,2
3095,4,1,2
3099,6,1,2
3099,25,1,2
3103,7,1,2
3103,3,1,2
3107,5,1,2
3107,3,1,2
3112,13,1,2
3116,2,1,2
3116,5,1,2
3120,1,1,2
3120,3,1,2
3124,13,1,2
3124,0,1,2
3128,1,1,2
3128,2,1,2
3132,25,1,2
3132,5,1,2
3136,0,1,2
3136,0,1,2
3140,3,1,2
3144,12,1,2
3145,5,1,2
3148,35,1,2
3149,0,1,2
3153,24,1,2
3153,4,1,2
3157,7,1,2
3157,5,1,2
3161,5,1,2
3161,11,1,2
3165,1,1,2
3169,9,1,2
3169,6,1,2
3173,11,1,2
3173,1,1,2
3177,0,1,2
3177,11,1,2
3181,8,1,2
3181,8,1,2
3185,0,1,2
3185,0,1,2
3189,6,1,2
3189,2,1,2
3193,10,1,2
3197,1,1,2
3198,3,1,2
3202,26,1,2
3202,19,1,2
3206,3,1,2
3206,5,1,2
3210,3,1,2
3210,0,1,2
3214,12,1,2
3214,1,1,2
3218,5,1,2
3222,1,1,2
3222,23,1,2
3226,8,1,2
3226,5,1,2
3230,8,1,2
3230,1,1,2
3234,15,1,2
3234,4,1,2
3238,5,1,2
3238,0,1,2
3242,1,1,2
3243,6,1,2
3246,8,1,2
3251,1,1,2
3251,2,1,2
3255,16,1,2
3255,10,1,2
3259,0,1,2
3259,3,1,2
3263,9,1,2
3263,10,1,2
3267,0,1,2
3267,0,1,2
3271,7,1,2
3275,14,1,2
3275,10,1,2
3279,9,1,2
3279,0,1,2
3284,1,1,2
3284,12,1,2
3288,12,1,2
3288,0,1,2
3292,4,1,2
3292,23,1,2
3296,4,1,2
3296,5,1,2
3300,2,1,2
3304,0,1,2
3304,13,1,2
3309,23,1,2
3309,0,1,2
3313,0,1,2
3313,25,1,2
3317,6,1,2
3317,8,1,2
3321,7,1,2
3321,0,1,2
3325,11,1,2
3329,2,1,2
3329,4,1,2
3333,13,1,2
3333,22,1,2
3337,6,1,2
3337,0,1,2
3341,6,1,2
3341,7,1,2
3345,10,1,2
3345,8,1,2
3350,0,1,2
3353,0,1,2
3353,18,1,2
3357,5,1,2
3357,0,1,2
3361,14,1,2
3361,6,1,2
3365,9,1,2
3365,5,1,2
3369,4,1,2
3369,5,1,2
3373,4,1,2
3373,9,1,2
3377,9,1,2
3382,10,1,2
3382,0,1,2
3386,30,1,2
3386,7,1,2
3390,6,1,2
3390,0,1,2
3394,4,1,2
3394,13,1,2
3398,7,1,2
3398,0,1,2
3402,0,1,2
3402,3,1,2
3406,8,1,2
3410,3,1,2
3410,0,1,2
3414,34,1,2
3415,21,1,2
3418,12,1,2
3419,6,1,2
3423,6,1,2
3423,3,1,2
3427,8,1,2
3427,0,1,2
3431,3,1,2
3435,10,1,2
3435,23,1,2
3439,20,1,2
3439,8,1,2
3443,8,1,2
3443,6,1,2
3447,3,1,2
3447,1,1,2
3451,11,1,2
3452,6,1,2
3455,22,1,2
3460,2,1,2
3460,9,1,2
3464,13,1,2
3464,16,1,2
3468,6,1,2
3468,0,1,2
3472,10,1,2
3472,2,1,2
3476,11,1,2
3476,5,1,2
3480,3,1,2
3480,2,1,2
3484,16,1,2
3489,1,1,2
3489,4,1,2
3493,37,1,2
3493,5,1,2
3497,12,1,2
3497,0,1,2
3501,0,1,2
3501,6,1,2
3505,16,1,2
3505,6,1,2
3509,3,1,2
3513,0,1,2
3513,0,1,2
3517,18,1,2
3518,0,1,2
3521,0,1,2
3521,4,1,2
3525,9,1,2
3525,7,1,2
3529,6,1,2
3529,4,1,2
3533,3,1,2
3534,4,1,2
3538,1,1,2
3542,1,1,2
3542,3,1,2
3546,17,1,2
3546,24,1,2
3550,8,1,2
3550,3,1,2
3554,3,1,2
3554,11,1,2
3559,4,1,2
3559,0,1,2
3563,0,1,2
3567,1,1,2
3567,10,1,2
3571,3,1,2
3571,2,1,2
3575,14,1,2
3575,0,1,2
3579,9,1,2
3579,8,1,2
3583,4,1,2
3583,0,1,2
3587,3,1,2
3587,11,1,2
3591,8,1,2
3595,0,1,2
3596,0,1,2
3599,15,1,2
3600,6,1,2
3604,10,1,2
3604,1,1,2
3608,2,1,2
3608,7,1,2
3612,3,1,2
3612,2,1,2
3616,2,1,2
3616,2,1,2
3620,8,1,2
3624,2,1,2
3624,4,1,2
3628,30,1,2
3628,23,1,2
3632,9,1,2
3632,4,1,2
3636,0,1,2
3637,0,1,2
3640,12,1,2
3641,9,1,2
3645,14,1,2
3649,0,1,2
3649,23,1,2
3653,21,1,2
3653,0,1,2
3657,8,1,2
3657,11,1,2
3661,6,1,2
3661,2,1,2
3665,10,1,2
3665,0,1,2
3669,9,1,2
3673,4,1,2
3673,2,1,2
3677,1,1,2
3677,2,1,2
3681,17,1,2
3682,4,1,2
3685,0,1,2
3686,1,1,2
3690,15,1,2
3690,1,1,2
3694,4,1,2
3694,7,1,2
3698,5,1,2
3702,16,1,2
3702,0,1,2
3706,22,1,2
3706,7,1,2
3710,15,1,2
3710,3,1,2
3714,1,1,2
3714,2,1,2
3718,3,1,2
3718,14,1,2
3722,4,1,2
3726,0,1,2
3726,2,1,2
3730,4,1,2
3731,11,1,2
3735,9,1,2
3735,0,1,2
3739,10,1,2
3739,18,1,2
3743,0,1,2
3743,0,1,2
3747,0,1,2
3747,0,1,2
3751,3,1,2
3755,0,1,2
3755,0,1,2
3759,21,1,2
3759,20,1,2
3763,15,1,2
3763,10,1,2
3767,3,1,2
3767,20,1,2
3771,0,1,2
3772,7,1,2
3775,0,1,2
3780,2,1,2
3780,11,1,2
3783,23,1,2
3783,0,1,2
3787,3,1,2
3787,18,1,2
3791,18,1,2
3792,0,1,2
3796,1,1,2
3796,2,1,2
3800,13,1,2
3804,0,1,2
3804,2,1,2
3808,0,1,2
3808,23,1,2
3812,6,1,2
3812,1,1,2
3816,3,1,2
3816,2,1,2
3820,12,1,2
3820,4,1,2
3824,7,1,2
3828,10,1,2
3828,24,1,2
3832,0,1,2
3832,1,1,2
3837,22,1,2
3837,0,1,2
3841,4,1,2
3841,1,1,2
3845,4,1,2
3845,8,1,2
3849,6,1,2
3849,10,1,2
3853,0,1,2
3857,0,1,2
3857,4,1,2
3861,19,1,2
3861,0,1,2
3865,11,1,2
3865,5,1,2
3869,6,1,2
3869,0,1,2
3873,4,1,2
3873,1,1,2
3877,3,1,2
3877,17,1,2
3881,5,1,2
3885,8,1,2
3885,9,1,2
3889,36,1,2
3890,9,1,2
3894,4,1,2
3894,0,1,2
3898,0,1,2
3898,1,1,2
3902,8,1,2
3902,1,1,2
3906,6,1,2
3906,3,1,2
3910,6,1,2
3914,5,1,2
3914,4,1,2
3919,25,1,2
3919,0,1,2
3923,20,1,2
3923,0,1,2
3927,0,1,2
3927,6,1,2
3931,0,1,2
3931,9,1,2
3935,1,1,2
3938,3,1,2
3939,2,1,2
3943,2,1,2
3943,11,1,2
3947,15,1,2
3947,9,1,2
3951,0,1,2
3951,16,1,2
3955,5,1,2
3955,15,1,2
3959,0,1,2
3963,19,1,2
3964,5,1,2
3967,4,1,2
3967,9,1,2
3972,21,1,2
3972,12,1,2
3976,4,1,2
3976,7,1,2
3980,3,1,2
3980,19,1,2
3984,6,1,2
3984,8,1,2
3988,1,1,2
3992,0,1,2
3993,15,1,2
3997,29,1,2
3997,0,1,2
4001,7,1,2
4001,21,1,2
4005,9,1,2
4005,1,1,2
4009,7,1,2
4009,0,1,2
4012,12,1,2
4016,3,1,2
4017,5,1,2
4021,5,1,2
4021,0,1,2
4024,17,1,2
4024,3,1,2
4029,5,1,2
4029,1,1,2
4033,22,1,2
4033,5,1,2
4037,0,1,2
4038,0,1,2
4042,3,1,2
4046,13,1,2
4046,0,1,2
4050,24,1,2
4050,0,1,2
4054,23,1,2
4054,6,1,2
4058,2,1,2
4058,0,1,2
4062,0,1,2
4062,13,1,2
4066,4,1,2
4070,2,1,2
4070,1,1,2
4074,15,1,2
4074,3,1,2
4078,10,1,2
4078,0,1,2
4082,1,1,2
4082,8,1,2
4086,6,1,2
4086,3,1,2
4090,3,1,2
4090,0,1,2
4094,8,1,2
4098,4,1,2
4098,6,1,2
4102,10,1,2
4103,23,1,2
4106,7,1,2
4107,0,1,2
4111,0,1,2
4111,2,1,2
4115,14,1,2
4115,0,1,2
4119,7,1,2
4123,16,1,2
4123,18,1,2
4127,0,1,2
4127,0,1,2
4131,3,1,2
4131,0,1,2
4135,11,1,2
4135,6,1,2
4139,9,1,2
4139,4,1,2
4143,0,1,2
4143,9,1,2
4147,7,1,2
4152,0,1,2
4152,8,1,2
4156,15,1,2
4156,2,1,2
4160,2,1,2
4160,0,1,2
4164,3,1,2
4164,17,1,2
4168,6,1,2
4169,2,1,2
4172,0,1,2
4173,4,1,2
4177,7,1,2
4181,3,1,2
4181,2,1,2
4185,25,1,2
4185,20,1,2
4189,3,1,2
4189,0,1,2
4193,2,1,2
4193,0,1,2
4197,13,1,2
4197,5,1,2
4201,2,1,2
4205,1,1,2
4205,2,1,2
4209,4,1,2
4209,3,1,2
4213,18,1,2
4213,0,1,2
4217,27,1,2
4217,12,1,2
4221,9,1,2
4221,8,1,2
4225,0,1,2
4225,3,1,2
4229,4,1,2
4233,2,1,2
4233,3,1,2
4238,23,1,2
4238,9,1,2
4242,5,1,2
4242,0,1,2
4247,0,1,2
4247,21,1,2
4251,1,1,2
4251,2,1,2
4255,4,1,2
4255,2,1,2
4258,11,1,2
4262,4,1,2
4262,2,1,2
4266,16,1,2
4267,20,1,2
4271,11,1,2
4271,7,1,2
4275,0,1,2
4275,9,1,2
4279,14,1,2
4279,1,1,2
4283,0,1,2
4287,0,1,2
4288,26,1,2
4291,28,1,2
4291,1,1,2
4295,6,1,2
4296,11,1,2
4300,4,1,2
4300,5,1,2
4304,7,1,2
4304,0,1,2
4308,17,1,2
4312,4,1,2
4312,5,1,2
4316,6,1,2
4316,3,1,2
4320,17,1,2
4320,0,1,2
4324,0,1,2
4324,1,1,2
4328,19,1,2
4328,4,1,2
4332,7,1,2
4332,2,1,2
4336,0,1,2
4341,12,1,2
4341,2,1,2
4345,39,1,2
4345,3,1,2
4349,23,1,2
4349,10,1,2
4353,5,1,2
4353,4,1,2
4357,0,1,2
4357,12,1,2
4360,4,1,2
4365,2,1,2
4365,13,1,2
4369,34,1,2
4369,0,1,2
4373,8,1,2
4373,2,1,2
4377,4,1,2
4377,11,1,2
4381,9,1,2
4381,0,1,2
4385,1,1,2
4389,23,1,2
4389,0,1,2
4393,1,1,2
4394,2,1,2
4397,17,1,2
4397,8,1,2
4402,5,1,2
4402,7,1,2
4406,16,1,2
4406,25,1,2
4410,0,1,2
4410,0,1,2
4414,0,1,2
4418,2,1,2
4418,13,1,2
4422,38,1,2
4422,9,1,2
4426,18,1,2
4426,16,1,2
4430,0,1,2
4430,0,1,2
4434,0,1,2
4434,2,1,2
4438,12,1,2
4442,0,1,2
4443,2,1,2
4446,19,1,2
4447,15,1,2
4451,3,1,2
4451,1,1,2
4455,5,1,2
4455,4,1,2
4459,8,1,2
4459,0,1,2
4463,4,1,2
4463,4,1,2
4467,10,1,2
4471,2,1,2
4471,3,1,2
4476,18,1,2
4476,4,1,2
4480,12,1,2
4480,3,1,2
4484,0,1,2
4484,3,1,2
4488,10,1,2
4488,6,1,2
4492,0,1,2
4496,3,1,2
4496,6,1,2
4500,22,1,2
4500,0,1,2
4504,4,1,2
4504,2,1,2
4508,4,1,2
4509,10,1,2
4512,7,1,2
4512,1,1,2
4516,6,1,2
4520,18,1,2
4520,5,1,2
4525,1,1,2
4525,0,1,2
4529,20,1,2
4529,6,1,2
4533,10,1,2
4533,0,1,2
4537,0,1,2
4537,19,1,2
4541,3,1,2
4541,3,1,2
4545,3,1,2
4549,1,1,2
4549,14,1,2
4553,24,1,2
4554,1,1,2
4557,11,1,2
4558,18,1,2
4562,3,1,2
4562,4,1,2
4566,3,1,2
4566,3,1,2
4571,10,1,2
4574,0,1,2
4574,0,1,2
4578,4,1,2
4578,19,1,2
4582,8,1,2
4583,2,1,2
4587,3,1,2
4587,0,1,2
4591,15,1,2
4591,4,1,2
4594,8,1,2
4594,4,1,2
4598,4,1,2
4602,6,1,2
4602,6,1,2
4606,15,1,2
4606,8,1,2
4610,26,1,2
4611,0,1,2
4614,13,1,2
4614,1,1,2
4619,0,1,2
4619,15,1,2
4623,5,1,2
4628,0,1,2
4628,0,1,2
4631,24,1,2
4631,1,1,2
4635,6,1,2
4635,3,1,2
4639,10,1,2
4639,9,1,2
4643,2,1,2
4643,4,1,2
4647,4,1,2
4647,10,1,2
4651,4,1,2
4655,3,1,2
4655,4,1,2
4660,30,1,2
4661,10,1,2
4664,3,1,2
4664,1,1,2
4669,0,1,2
4669,12,1,2
4673,7,1,2
4673,7,1,2
4677,4,1,2
4681,0,1,2
4681,19,1,2
4685,5,1,2
4685,3,1,2
4689,5,1,2
4689,6,1,2
4693,13,1,2
4693,0,1,2
4697,3,1,2
4697,6,1,2
4701,18,1,2
4701,2,1,2
4705,11,1,2
4709,9,1,2
4709,0,1,2
4713,41,1,2
4713,2,1,2
4717,6,1,2
4717,3,1,2
4721,20,1,2
4721,3,1,2
4725,8,1,2
4725,5,1,2
4729,1,1,2
4733,14,1,2
4734,2,1,2
4737,5,1,2
4737,4,1,2
4741,6,1,2
4741,9,1,2
4745,0,1,2
4746,3,1,2
4750,11,1,2
4750,28,1,2
4754,4,1,2
4754,5,1,2
4758,3,1,2
4762,0,1,2
4762,13,1,2
4766,31,1,2
4766,4,1,2
4770,6,1,2
4770,26,1,2
4774,5,1,2
4774,2,1,2
4778,5,1,2
4778,4,1,2
4782,12,1,2
4787,1,1,2
4787,3,1,2
4791,1,1,2
4791,8,1,2
4795,20,1,2
4795,0,1,2
4799,0,1,2
4799,0,1,2
4803,21,1,2
4803,8,1,2
4807,0,1,2
4807,4,1,2
4811,4,1,2
4815,11,1,2
4815,7,1,2
4819,27,1,2
4820,2,1,2
4824,21,1,2
4824,5,1,2
4828,5,1,2
4828,0,1,2
4832,2,1,2
4832,10,1,2
4836,6,1,2
4840,3,1,2
4840,3,1,2
4844,20,1,2
4845,6,1,2
4848,1,1,2
4848,0,1,2
4853,6,1,2
4853,16,1,2
4857,3,1,2
4857,0,1,2
4860,5,1,2
4860,3,1,2
4864,9,1,2
4868,0,1,2
4869,4,1,2
4873,14,1,2
4873,24,1,2
4877,9,1,2
4877,5,1,2
4881,0,1,2
4881,0,1,2
4885,10,1,2
4885,0,1,2
4889,5,1,2
4893,5,1,2
4893,9,1,2
4897,4,1,2
4897,9,1,2
4901,22,1,2
4901,0,1,2
4905,22,1,2
4905,1,1,2
4909,1,1,2
4909,2,1,2
4913,1,1,2
4914,12,1,2
4918,5,1,2
4922,1,1,2
4922,0,1,2
4926,17,1,2
4926,0,1,2
4930,9,1,2
4930,10,1,2
4934,11,1,2
4934,5,1,2
4938,0,1,2
4938,4,1,2
4942,7,1,2
4946,21,1,2
4946,9,1,2
4950,0,1,2
4950,1,1,2
4954,29,1,2
4955,10,1,2
4958,0,1,2
4958,1,1,2
4963,7,1,2
4963,21,1,2
4967,7,1,2
4967,8,1,2
4971,0,1,2
4975,6,1,2
4976,16,1,2
4980,36,1,2
4980,0,1,2
4983,6,1,2
4983,21,1,2
4987,3,1,2
4987,0,1,2
4991,0,1,2
4991,0,1,2
4995,16,1,2
4999,4,1,2
4999,7,1,2
5003,7,1,2
1,5,1,3
1,18,1,3
1,0,1,3
1,1,1,3
1,3,1,3
1,25,1,3
2,5,1,3
2,8,1,3
2,3,1,3
2,4,1,3
2,11,1,3
2,3,1,3
2,24,1,3
2,10,1,3
3,14,1,3
3,4,1,3
3,4,1,3
3,1,1,3
3,1,1,3
3,9,1,3
3,9,1,3
3,7,1,3
3,0,1,3
3,13,1,3
3,4,1,3
3,11,1,3
3,4,1,3
3,7,1,3
4,12,1,3
4,8,1,3
4,1,1,3
4,2,1,3
4,13,1,3
4,4,1,3
4,4,1,3
4,2,1,3
4,30,1,3
4,11,1,3
4,7,1,3
4,4,1,3
5,1,1,3
5,17,1,3
5,7,1,3
5,4,1,3
5,3,1,3
5,3,1,3
5,18,1,3
5,18,1,3
5,2,1,3
5,6,1,3
5,17,1,3
5,9,1,3
5,0,1,3
5,0,1,3
5,2,1,3
5,18,1,3
6,4,1,3
6,11,1,3
6,0,1,3
6,19,1,3
6,5,1,3
6,5,1,3
6,6,1,3
6,1,1,3
6,15,1,3
6,3,1,3
6,5,1,3
6,0,1,3
6,4,1,3
6,8,1,3
6,0,1,3
6,18,1,3
6,5,1,3
7,23,1,3
7,8,1,3
7,0,1,3
7,0,1,3
7,1,1,3
7,12,1,3
7,3,1,3
7,3,1,3
7,1,1,3
7,9,1,3
7,12,1,3
7,12,1,3
7,0,1,3
8,0,1,3
8,13,1,3
8,7,1,3
8,0,1,3
8,2,1,3
8,5,1,3
8,4,1,3
8,0,1,3
8,6,1,3
9,6,1,3
9,11,1,3
9,9,1,3
9,7,1,3
9,6,1,3
9,0,1,3
9,18,1,3
9,2,1,3
9,5,1,3
9,1,1,3
9,0,1,3
9,9,1,3
10,4,1,3
10,26,1,3
10,0,1,3
10,18,1,3
10,0,1,3
10,4,1,3
10,0,1,3
10,4,1,3
10,16,1,3
10,6,1,3
10,1,1,3
10,0,1,3
10,0,1,3
10,9,1,3
10,12,1,3
10,0,1,3
10,1,1,3
10,26,1,3
11,4,1,3
11,3,1,3
11,6,1,3
11,0,1,3
11,14,1,3
11,0,1,3
11,3,1,3
11,28,1,3
11,23,1,3
11,8,1,3
11,0,1,3
11,3,1,3
11,0,1,3
11,13,1,3
11,0,1,3
11,3,1,3
11,2,1,3
11,8,1,3
11,8,1,3
12,3,1,3
12,11,1,3
12,0,1,3
12,20,1,3
12,7,1,3
12,4,1,3
12,0,1,3
12,7,1,3
12,9,1,3
12,0,1,3
12,5,1,3
12,0,1,3
12,9,1,3
12,12,1,3
12,12,1,3
12,0,1,3
12,0,1,3
12,16,1,3
13,0,1,3
13,2,1,3
13,6,1,3
13,3,1,3
13,8,1,3
13,5,1,3
13,2,1,3
13,31,1,3
13,24,1,3
13,8,1,3
13,1,1,3
13,3,1,3
13,3,1,3
13,15,1,3
13,0,1,3
13,2,1,3
13,0,1,3
13,1,1,3
13,9,1,3
14,4,1,3
14,6,1,3
14,2,1,3
14,7,1,3
14,6,1,3
14,4,1,3
14,5,1,3
14,6,1,3
14,17,1,3
14,3,1,3
14,1,1,3
14,0,1,3
14,12,1,3
14,10,1,3
14,11,1,3
14,0,1,3
14,0,1,3
14,20,1,3
15,0,1,3
15,2,1,3
15,7,1,3
15,1,1,3
15,10,1,3
15,5,1,3
15,5,1,3
15,7,1,3
16,17,1,3
16,1,1,3
16,0,1,3
16,1,1,3
16,3,1,3
16,15,1,3
17,1,1,3
17,4,1,3
17,10,1,3
17,21,1,3
17,27,1,3
17,0,1,3
17,0,1,3
17,0,1,3
17,7,1,3
18,8,1,3
18,2,1,3
18,0,1,3
18,4,1,3
18,7,1,3
18,2,1,3
18,2,1,3
18,1,1,3
18,29,1,3
18,12,1,3
18,0,1,3
19,0,1,3
19,0,1,3
19,12,1,3
19,7,1,3
19,1,1,3
19,3,1,3
19,9,1,3
19,4,1,3
19,22,1,3
19,3,1,3
19,3,1,3
19,21,1,3
19,5,1,3
19,0,1,3
19,0,1,3
19,1,1,3
20,10,1,3
20,2,1,3
20,0,1,3
20,4,1,3
20,18,1,3
20,14,1,3
20,0,1,3
20,4,1,3
20,3,1,3
20,9,1,3
21,2,1,3
21,3,1,3
21,2,1,3
21,2,1,3
21,9,1,3
21,2,1,3
21,4,1,3
21,2,1,3
21,42,1,3
21,8,1,3
21,5,1,3
21,2,1,3
22,7,1,3
22,20,1,3
22,2,1,3
22,0,1,3
22,8,1,3
22,10,1,3
22,13,1,3
22,44,1,3
22,0,1,3
22,0,1,3
22,11,1,3
22,5,1,3
22,2,1,3
22,10,1,3
23,24,1,3
23,4,1,3
23,5,1,3
23,5,1,3
23,31,1,3
23,7,1,3
23,5,1,3
23,6,1,3
23,0,1,3
23,16,1,3
23,0,1,3
23,2,1,3
24,1,1,3
24,0,1,3
24,19,1,3
24,2,1,3
24,5,1,3
24,7,1,3
24,4,1,3
24,12,1,3
24,0,1,3
25,2,1,3
25,0,1,3
25,22,1,3
26,2,1,3
26,0,1,3
26,0,1,3
26,0,1,3
26,27,1,3
26,7,1,3
26,4,1,3
26,4,1,3
26,5,1,3
26,9,1,3
26,8,1,3
27,2,1,3
27,3,1,3
27,6,1,3
27,6,1,3
27,4,1,3
27,5,1,3
27,25,1,3
27,26,1,3
27,12,1,3
27,6,1,3
27,6,1,3
27,8,1,3
27,8,1,3
28,8,1,3
28,0,1,3
28,3,1,3
28,15,1,3
28,3,1,3
28,0,1,3
28,21,1,3
28,0,1,3
28,11,1,3
28,0,1,3
28,6,1,3
28,5,1,3
29,16,1,3
29,0,1,3
29,3,1,3
29,0,1,3
29,0,1,3
29,28,1,3
29,2,1,3
29,4,1,3
29,3,1,3
29,5,1,3
29,9,1,3
29,2,1,3
29,1,1,3
29,3,1,3
29,3,1,3
29,7,1,3
30,5,1,3
30,2,1,3
30,31,1,3
30,28,1,3
30,6,1,3
30,5,1,3
30,5,1,3
30,0,1,3
30,12,1,3
30,16,1,3
31,0,1,3
31,0,1,3
31,27,1,3
31,30,1,3
31,7,1,3
31,10,1,3
31,27,1,3
31,3,1,3
31,2,1,3
31,0,1,3
31,5,1,3
31,16,1,3
31,3,1,3
31,0,1,3
31,0,1,3
31,12,1,3
31,5,1,3
32,4,1,3
32,2,1,3
32,3,1,3
32,24,1,3
32,5,1,3
32,11,1,3
32,0,1,3
32,11,1,3
32,2,1,3
32,0,1,3
32,38,1,3
32,4,1,3
32,13,1,3
32,4,1,3
32,9,1,3
32,2,1,3
33,10,1,3
33,5,1,3
33,1,1,3
33,4,1,3
33,2,1,3
33,23,1,3
33,4,1,3
33,6,1,3
33,1,1,3
33,6,1,3
34,8,1,3
34,2,1,3
34,2,1,3
34,4,1,3
34,4,1,3
34,14,1,3
34,0,1,3
34,4,1,3
34,34,1,3
34,16,1,3
35,4,1,3
35,0,1,3
35,0,1,3
35,7,1,3
35,11,1,3
35,0,1,3
35,2,1,3
35,0,1,3
35,26,1,3
35,13,1,3
35,4,1,3
35,0,1,3
35,1,1,3
35,8,1,3
35,4,1,3
35,7,1,3
36,1,1,3
36,1,1,3
36,14,1,3
36,0,1,3
36,1,1,3
36,0,1,3
36,27,1,3
36,4,1,3
36,7,1,3
36,6,1,3
36,0,1,3
36,11,1,3
36,6,1,3
36,6,1,3
36,0,1,3
36,13,1,3
36,0,1,3
36,5,1,3
37,0,1,3
37,11,1,3
37,10,1,3
37,4,1,3
37,0,1,3
37,4,1,3
37,16,1,3
37,2,1,3
37,4,1,3
37,5,1,3
37,5,1,3
37,19,1,3
37,22,1,3
37,0,1,3
37,2,1,3
37,17,1,3
37,12,1,3
38,3,1,3
38,3,1,3
38,0,1,3
38,13,1,3
38,0,1,3
38,6,1,3
38,15,1,3
38,21,1,3
38,2,1,3
38,7,1,3
38,13,1,3
38,9,1,3
38,0,1,3
38,0,1,3
38,5,1,3
38,0,1,3
38,19,1,3
38,10,1,3
39,0,1,3
39,6,1,3
39,3,1,3
39,12,1,3
39,0,1,3
39,8,1,3
39,9,1,3
39,23,1,3
39,0,1,3
39,2,1,3
39,1,1,3
39,1,1,3
39,32,1,3
39,1,1,3
39,5,1,3
39,4,1,3
39,0,1,3
39,8,1,3
40,7,1,3
40,0,1,3
40,5,1,3
40,9,1,3
40,9,1,3
40,0,1,3
40,0,1,3
40,35,1,3
40,23,1,3
40,7,1,3
40,8,1,3
40,1,1,3
40,0,1,3
40,12,1,3
40,9,1,3
40,5,1,3
40,0,1,3
40,17,1,3
41,0,1,3
41,5,1,3
41,8,1,3
41,5,1,3
41,19,1,3
41,5,1,3
41,8,1,3
41,9,1,3
41,0,1,3
41,6,1,3
41,9,1,3
41,6,1,3
41,7,1,3
41,18,1,3
41,16,1,3
41,4,1,3
41,5,1,3
41,8,1,3
41,14,1,3
43,3,1,3
43,0,1,3
43,0,1,3
43,5,1,3
43,9,1,3
43,3,1,3
43,0,1,3
43,32,1,3
43,22,1,3
43,2,1,3
43,0,1,3
43,0,1,3
43,0,1,3
43,13,1,3
44,3,1,3
44,2,1,3
44,0,1,3
44,19,1,3
44,30,1,3
44,5,1,3
44,3,1,3
44,4,1,3
44,7,1,3
44,4,1,3
44,2,1,3
44,3,1,3
44,1,1,3
44,6,1,3
44,1,1,3
44,2,1,3
44,0,1,3
44,29,1,3
45,5,1,3
45,7,1,3
45,1,1,3
45,5,1,3
45,26,1,3
45,0,1,3
45,0,1,3
45,4,1,3
45,3,1,3
45,15,1,3
45,1,1,3
45,4,1,3
45,20,1,3
45,29,1,3
45,1,1,3
45,0,1,3
45,0,1,3
45,3,1,3
46,15,1,3
46,2,1,3
46,0,1,3
46,0,1,3
46,10,1,3
46,32,1,3
46,4,1,3
46,5,1,3
46,0,1,3
46,11,1,3
46,4,1,3
47,7,1,3
47,1,1,3
47,10,1,3
47,5,1,3
47,3,1,3
47,4,1,3
47,0,1,3
47,23,1,3
47,7,1,3
47,0,1,3
47,1,1,3
47,2,1,3
47,9,1,3
47,4,1,3
47,1,1,3
47,3,1,3
47,7,1,3
47,9,1,3
48,13,1,3
48,7,1,3
48,2,1,3
48,25,1,3
48,30,1,3
48,9,1,3
48,0,1,3
48,0,1,3
48,12,1,3
48,0,1,3
48,11,1,3
48,7,1,3
48,17,1,3
48,6,1,3
48,4,1,3
48,0,1,3
48,0,1,3
48,9,1,3
49,3,1,3
49,5,1,3
49,2,1,3
49,9,1,3
49,4,1,3
49,0,1,3
49,16,1,3
49,0,1,3
49,23,1,3
49,3,1,3
49,5,1,3
49,0,1,3
49,1,1,3
49,9,1,3
49,4,1,3
49,5,1,3
49,2,1,3
49,0,1,3
49,11,1,3
50,13,1,3
50,12,1,3
50,0,1,3
50,7,1,3
50,3,1,3
50,4,1,3
50,3,1,3
50,2,1,3
50,10,1,3
51,4,1,3
51,0,1,3
51,16,1,3
51,17,1,3
51,2,1,3
51,0,1,3
51,5,1,3
51,0,1,3
51,13,1,3
51,1,1,3
51,3,1,3
51,3,1,3
51,29,1,3
51,3,1,3
51,4,1,3
51,43,1,3
51,0,1,3
52,11,1,3
52,6,1,3
52,3,1,3
52,0,1,3
52,27,1,3
52,6,1,3
52,11,1,3
52,6,1,3
52,2,1,3
52,43,1,3
52,5,1,3
52,6,1,3
52,5,1,3
52,23,1,3
52,2,1,3
52,0,1,3
52,3,1,3
52,0,1,3
53,10,1,3
53,4,1,3
53,11,1,3
53,8,1,3
53,32,1,3
53,0,1,3
53,1,1,3
53,5,1,3
53,3,1,3
53,12,1,3
53,6,1,3
53,0,1,3
53,1,1,3
53,18,1,3
53,3,1,3
53,23,1,3
53,1,1,3
53,5,1,3
54,9,1,3
54,1,1,3
54,1,1,3
54,9,1,3
54,0,1,3
54,16,1,3
54,10,1,3
54,4,1,3
54,4,1,3
54,21,1,3
54,10,1,3
54,5,1,3
54,0,1,3
54,19,1,3
54,2,1,3
54,1,1,3
54,4,1,3
54,3,1,3
55,21,1,3
55,0,1,3
55,3,1,3
55,16,1,3
55,20,1,3
55,8,1,3
55,3,1,3
55,4,1,3
55,0,1,3
55,19,1,3
55,4,1,3
55,1,1,3
55,3,1,3
55,3,1,3
55,22,1,3
55,0,1,3
55,8,1,3
55,1,1,3
56,27,1,3
56,3,1,3
56,4,1,3
56,3,1,3
56,2,1,3
56,16,1,3
56,4,1,3
56,7,1,3
56,7,1,3
56,33,1,3
56,5,1,3
56,16,1,3
56,0,1,3
56,0,1,3
56,14,1,3
56,5,1,3
56,5,1,3
56,5,1,3
57,6,1,3
57,8,1,3
57,10,1,3
57,5,1,3
57,9,1,3
57,27,1,3
57,2,1,3
57,2,1,3
57,1,1,3
57,3,1,3
57,11,1,3
57,0,1,3
57,1,1,3
57,0,1,3
57,20,1,3
57,12,1,3
57,3,1,3
58,4,1,3
58,12,1,3
58,4,1,3
58,0,1,3
58,0,1,3
58,0,1,3
58,22,1,3
58,6,1,3
58,0,1,3
58,30,1,3
58,2,1,3
58,14,1,3
58,0,1,3
58,4,1,3
58,2,1,3
58,22,1,3
58,0,1,3
58,6,1,3
59,0,1,3
59,1,1,3
59,15,1,3
59,6,1,3
59,8,1,3
59,4,1,3
60,6,1,3
60,9,1,3
60,0,1,3
60,0,1,3
60,3,1,3
60,9,1,3
60,8,1,3
60,1,1,3
60,5,1,3
60,6,1,3
60,19,1,3
60,7,1,3
60,0,1,3
60,1,1,3
60,0,1,3
61,18,1,3
61,3,1,3
61,0,1,3
61,1,1,3
61,5,1,3
61,9,1,3
61,0,1,3
61,19,1,3
61,1,1,3
61,30,1,3
61,4,1,3
61,2,1,3
61,1,1,3
61,3,1,3
61,14,1,3
61,0,1,3
61,2,1,3
62,0,1,3
62,4,1,3
62,7,1,3
62,27,1,3
62,1,1,3
63,11,1,3
63,14,1,3
63,8,1,3
63,0,1,3
63,2,1,3
63,1,1,3
64,8,1,3
64,2,1,3
64,2,1,3
64,12,1,3
64,24,1,3
64,1,1,3
64,7,1,3
64,4,1,3
64,0,1,3
64,11,1,3
64,0,1,3
64,6,1,3
64,3,1,3
64,17,1,3
64,2,1,3
64,2,1,3
64,11,1,3
65,3,1,3
65,14,1,3
65,7,1,3
65,6,1,3
65,0,1,3
65,20,1,3
65,8,1,3
65,9,1,3
65,0,1,3
65,0,1,3
65,34,1,3
65,0,1,3
65,0,1,3
65,1,1,3
65,4,1,3
65,9,1,3
66,13,1,3
66,2,1,3
66,0,1,3
66,36,1,3
66,1,1,3
66,2,1,3
66,4,1,3
66,13,1,3
66,9,1,3
66,4,1,3
66,7,1,3
66,0,1,3
66,8,1,3
66,5,1,3
66,2,1,3
67,4,1,3
67,0,1,3
67,14,1,3
67,6,1,3
67,7,1,3
67,7,1,3
67,0,1,3
67,21,1,3
67,2,1,3
67,0,1,3
67,6,1,3
68,8,1,3
68,12,1,3
68,3,1,3
68,0,1,3
68,3,1,3
68,32,1,3
68,0,1,3
68,0,1,3
68,0,1,3
68,7,1,3
69,15,1,3
69,7,1,3
69,5,1,3
69,0,1,3
69,0,1,3
69,7,1,3
69,3,1,3
69,2,1,3
69,16,1,3
69,30,1,3
70,10,1,3
70,6,1,3
70,0,1,3
70,0,1,3
70,7,1,3
70,5,1,3
70,0,1,3
70,1,1,3
70,12,1,3
70,32,1,3
70,4,1,3
70,5,1,3
70,1,1,3
71,11,1,3
71,3,1,3
71,5,1,3
71,2,1,3
71,19,1,3
71,1,1,3
71,4,1,3
71,2,1,3
71,2,1,3
71,23,1,3
71,2,1,3
71,8,1,3
71,9,1,3
71,6,1,3
71,7,1,3
71,2,1,3
71,11,1,3
71,1,1,3
71,24,1,3
71,10,1,3
71,32,1,3
71,0,1,3
71,20,1,3
71,7,1,3
72,6,1,3
72,3,1,3
72,0,1,3
72,17,1,3
72,6,1,3
72,0,1,3
72,0,1,3
72,0,1,3
72,7,1,3
73,7,1,3
73,4,1,3
73,1,1,3
73,4,1,3
73,10,1,3
73,2,1,3
73,0,1,3
73,1,1,3
73,26,1,3
73,1,1,3
73,3,1,3
73,24,1,3
73,5,1,3
73,12,1,3
73,0,1,3
73,3,1,3
73,0,1,3
74,25,1,3
74,0,1,3
74,4,1,3
74,0,1,3
74,4,1,3
74,10,1,3
74,3,1,3
74,8,1,3
74,4,1,3
74,16,1,3
74,5,1,3
74,5,1,3
74,0,1,3
74,0,1,3
74,19,1,3
74,7,1,3
74,1,1,3
75,3,1,3
75,23,1,3
75,6,1,3
75,8,1,3
75,2,1,3
75,0,1,3
75,26,1,3
75,1,1,3
75,0,1,3
75,4,1,3
75,0,1,3
75,16,1,3
75,3,1,3
75,4,1,3
75,16,1,3
75,25,1,3
76,6,1,3
76,5,1,3
76,4,1,3
76,2,1,3
76,14,1,3
76,0,1,3
76,2,1,3
76,1,1,3
76,4,1,3
76,19,1,3
76,2,1,3
76,6,1,3
76,2,1,3
77,29,1,3
77,2,1,3
77,6,1,3
77,5,1,3
77,0,1,3
77,12,1,3
77,8,1,3
77,13,1,3
77,3,1,3
77,38,1,3
77,3,1,3
77,3,1,3
78,1,1,3
78,3,1,3
78,15,1,3
78,4,1,3
78,2,1,3
78,3,1,3
78,17,1,3
78,0,1,3
78,26,1,3
78,0,1,3
78,5,1,3
78,11,1,3
78,2,1,3
78,0,1,3
78,0,1,3
78,15,1,3
78,7,1,3
78,2,1,3
79,2,1,3
79,1,1,3
79,20,1,3
79,12,1,3
79,7,1,3
79,9,1,3
79,16,1,3
79,2,1,3
79,0,1,3
79,0,1,3
79,0,1,3
79,20,1,3
79,3,1,3
79,3,1,3
79,27,1,3
79,16,1,3
79,7,1,3
80,5,1,3
80,2,1,3
80,3,1,3
80,19,1,3
80,2,1,3
80,0,1,3
80,2,1,3
80,0,1,3
80,7,1,3
80,8,1,3
80,12,1,3
80,2,1,3
80,21,1,3
80,0,1,3
80,11,1,3
80,2,1,3
80,4,1,3
80,8,1,3
81,2,1,3
81,0,1,3
81,1,1,3
81,24,1,3
81,0,1,3
81,0,1,3
81,0,1,3
81,2,1,3
81,28,1,3
81,2,1,3
81,1,1,3
81,2,1,3
81,0,1,3
81,15,1,3
81,2,1,3
81,3,1,3
81,31,1,3
81,29,1,3
82,6,1,3
82,1,1,3
82,4,1,3
82,2,1,3
82,16,1,3
82,10,1,3
82,7,1,3
82,0,1,3
82,30,1,3
82,39,1,3
82,0,1,3
82,7,1,3
82,3,1,3
82,10,1,3
82,0,1,3
82,0,1,3
82,3,1,3
83,27,1,3
83,2,1,3
83,4,1,3
83,14,1,3
83,3,1,3
83,13,1,3
83,0,1,3
83,3,1,3
83,0,1,3
83,24,1,3
83,11,1,3
83,0,1,3
83,0,1,3
84,2,1,3
84,5,1,3
84,0,1,3
84,9,1,3
84,0,1,3
84,9,1,3
84,12,1,3
84,3,1,3
84,0,1,3
84,3,1,3
84,23,1,3
84,10,1,3
84,5,1,3
84,0,1,3
85,23,1,3
85,4,1,3
85,4,1,3
85,1,1,3
85,1,1,3
85,21,1,3
85,4,1,3
85,4,1,3
85,2,1,3
85,0,1,3
85,11,1,3
85,2,1,3
85,2,1,3
85,11,1,3
85,19,1,3
85,2,1,3
85,2,1,3
86,9,1,3
86,1,1,3
86,9,1,3
86,1,1,3
86,4,1,3
86,3,1,3
86,3,1,3
86,11,1,3
86,6,1,3
86,5,1,3
86,0,1,3
86,27,1,3
86,7,1,3
86,8,1,3
86,0,1,3
86,6,1,3
86,16,1,3
86,11,1,3
87,5,1,3
87,0,1,3
87,50,1,3
87,0,1,3
87,1,1,3
87,1,1,3
87,0,1,3
87,12,1,3
87,9,1,3
87,4,1,3
87,3,1,3
87,10,1,3
87,3,1,3
87,9,1,3
87,1,1,3
87,8,1,3
87,22,1,3
87,6,1,3
88,2,1,3
88,0,1,3
88,0,1,3
88,11,1,3
88,5,1,3
88,8,1,3
88,0,1,3
88,20,1,3
88,42,1,3
88,1,1,3
88,6,1,3
88,4,1,3
88,9,1,3
88,1,1,3
88,5,1,3
88,4,1,3
88,3,1,3
89,5,1,3
89,2,1,3
89,4,1,3
89,8,1,3
89,16,1,3
89,5,1,3
89,0,1,3
89,0,1,3
89,0,1,3
89,23,1,3
89,3,1,3
89,1,1,3
89,3,1,3
89,4,1,3
89,12,1,3
89,23,1,3
89,0,1,3
89,6,1,3
89,25,1,3
90,2,1,3
90,3,1,3
90,3,1,3
90,2,1,3
90,9,1,3
90,8,1,3
90,8,1,3
90,0,1,3
90,0,1,3
90,33,1,3
90,6,1,3
90,6,1,3
90,2,1,3
90,21,1,3
90,5,1,3
90,4,1,3
90,3,1,3
90,1,1,3
90,16,1,3
91,5,1,3
91,0,1,3
91,0,1,3
91,5,1,3
91,8,1,3
91,4,1,3
91,6,1,3
91,15,1,3
91,30,1,3
91,2,1,3
91,0,1,3
91,0,1,3
91,2,1,3
91,15,1,3
91,30,1,3
91,0,1,3
91,5,1,3
92,26,1,3
92,8,1,3
92,0,1,3
92,2,1,3
92,2,1,3
92,12,1,3
92,0,1,3
92,4,1,3
92,3,1,3
92,11,1,3
92,9,1,3
92,2,1,3
92,5,1,3
92,2,1,3
92,21,1,3
93,4,1,3
93,2,1,3
93,6,1,3
93,4,1,3
93,9,1,3
93,0,1,3
93,25,1,3
93,0,1,3
93,22,1,3
93,2,1,3
93,7,1,3
93,0,1,3
93,4,1,3
94,17,1,3
94,0,1,3
94,3,1,3
94,5,1,3
94,0,1,3
94,9,1,3
94,11,1,3
94,0,1,3
94,4,1,3
94,28,1,3
94,5,1,3
94,2,1,3
94,3,1,3
94,7,1,3
94,11,1,3
94,9,1,3
95,7,1,3
95,23,1,3
95,27,1,3
95,4,1,3
95,0,1,3
95,3,1,3
95,7,1,3
95,13,1,3
95,4,1,3
95,0,1,3
95,3,1,3
95,16,1,3
95,3,1,3
95,3,1,3
95,9,1,3
95,0,1,3
95,17,1,3
95,1,1,3
96,6,1,3
96,0,1,3
96,1,1,3
96,9,1,3
96,0,1,3
96,5,1,3
96,2,1,3
96,0,1,3
96,9,1,3
96,9,1,3
96,1,1,3
96,7,1,3
96,8,1,3
96,6,1,3
96,1,1,3
96,4,1,3
96,2,1,3
96,15,1,3
96,1,1,3
96,1,1,3
96,5,1,3
96,9,1,3
96,24,1,3
96,4,1,3
96,0,1,3
96,0,1,3
96,4,1,3
96,10,1,3
96,6,1,3
97,4,1,3
97,0,1,3
97,24,1,3
97,4,1,3
97,30,1,3
97,0,1,3
97,0,1,3
97,9,1,3
97,12,1,3
97,7,1,3
97,2,1,3
97,31,1,3
97,7,1,3
97,2,1,3
97,5,1,3
97,4,1,3
97,13,1,3
